,Date,EOG
0,2019-02-04 00:00:00-05:00,79.27265167236328
1,2019-02-05 00:00:00-05:00,78.45105743408203
2,2019-02-06 00:00:00-05:00,76.72010803222656
3,2019-02-07 00:00:00-05:00,74.17554473876953
4,2019-02-08 00:00:00-05:00,73.78466796875
5,2019-02-11 00:00:00-05:00,75.14868927001953
6,2019-02-12 00:00:00-05:00,76.28137969970703
7,2019-02-13 00:00:00-05:00,77.17477416992188
8,2019-02-14 00:00:00-05:00,77.34229278564453
9,2019-02-15 00:00:00-05:00,79.96662139892578
10,2019-02-19 00:00:00-05:00,79.53590393066406
11,2019-02-20 00:00:00-05:00,78.79405212402344
12,2019-02-21 00:00:00-05:00,76.05804443359375
13,2019-02-22 00:00:00-05:00,76.20159912109375
14,2019-02-25 00:00:00-05:00,75.57942199707031
15,2019-02-26 00:00:00-05:00,74.90938568115234
16,2019-02-27 00:00:00-05:00,75.81074523925781
17,2019-02-28 00:00:00-05:00,74.9811782836914
18,2019-03-01 00:00:00-05:00,76.91152954101562
19,2019-03-04 00:00:00-05:00,77.22264099121094
20,2019-03-05 00:00:00-05:00,76.17769622802734
21,2019-03-06 00:00:00-05:00,73.33795166015625
22,2019-03-07 00:00:00-05:00,72.86734008789062
23,2019-03-08 00:00:00-05:00,68.95077514648438
24,2019-03-11 00:00:00-04:00,68.80718994140625
25,2019-03-12 00:00:00-04:00,69.38152313232422
26,2019-03-13 00:00:00-04:00,70.64982604980469
27,2019-03-14 00:00:00-04:00,71.543212890625
28,2019-03-15 00:00:00-04:00,70.8731689453125
29,2019-03-18 00:00:00-04:00,73.3219985961914
30,2019-03-19 00:00:00-04:00,74.0877914428711
31,2019-03-20 00:00:00-04:00,76.48878479003906
32,2019-03-21 00:00:00-04:00,77.27049255371094
33,2019-03-22 00:00:00-04:00,74.72591400146484
34,2019-03-25 00:00:00-04:00,74.00799560546875
35,2019-03-26 00:00:00-04:00,75.59539794921875
36,2019-03-27 00:00:00-04:00,75.4518051147461
37,2019-03-28 00:00:00-04:00,75.97028350830078
38,2019-03-29 00:00:00-04:00,75.92244720458984
39,2019-04-01 00:00:00-04:00,77.32633209228516
40,2019-04-02 00:00:00-04:00,76.61640167236328
41,2019-04-03 00:00:00-04:00,74.92534637451172
42,2019-04-04 00:00:00-04:00,74.71795654296875
43,2019-04-05 00:00:00-04:00,78.67439270019531
44,2019-04-08 00:00:00-04:00,79.35244750976562
45,2019-04-09 00:00:00-04:00,78.62653350830078
46,2019-04-10 00:00:00-04:00,78.7541732788086
47,2019-04-11 00:00:00-04:00,78.7541732788086
48,2019-04-12 00:00:00-04:00,84.00285339355469
49,2019-04-15 00:00:00-04:00,81.6288070678711
50,2019-04-16 00:00:00-04:00,81.81265258789062
51,2019-04-17 00:00:00-04:00,81.40498352050781
52,2019-04-18 00:00:00-04:00,83.02764892578125
53,2019-04-22 00:00:00-04:00,85.5855484008789
54,2019-04-23 00:00:00-04:00,85.20985412597656
55,2019-04-24 00:00:00-04:00,83.08360290527344
56,2019-04-25 00:00:00-04:00,81.5968017578125
57,2019-04-26 00:00:00-04:00,78.23961639404297
58,2019-04-29 00:00:00-04:00,77.53616333007812
59,2019-04-30 00:00:00-04:00,76.77679443359375
60,2019-05-01 00:00:00-04:00,73.45152282714844
61,2019-05-02 00:00:00-04:00,71.27732849121094
62,2019-05-03 00:00:00-04:00,72.66019439697266
63,2019-05-06 00:00:00-04:00,72.93196868896484
64,2019-05-07 00:00:00-04:00,73.36361694335938
65,2019-05-08 00:00:00-04:00,75.16210174560547
66,2019-05-09 00:00:00-04:00,75.32999420166016
67,2019-05-10 00:00:00-04:00,75.93749237060547
68,2019-05-13 00:00:00-04:00,74.73848724365234
69,2019-05-14 00:00:00-04:00,75.40992736816406
70,2019-05-15 00:00:00-04:00,75.4259262084961
71,2019-05-16 00:00:00-04:00,76.08138275146484
72,2019-05-17 00:00:00-04:00,74.35477447509766
73,2019-05-20 00:00:00-04:00,74.8823471069336
74,2019-05-21 00:00:00-04:00,76.4410629272461
75,2019-05-22 00:00:00-04:00,74.26685333251953
76,2019-05-23 00:00:00-04:00,71.02153015136719
77,2019-05-24 00:00:00-04:00,69.67064666748047
78,2019-05-28 00:00:00-04:00,69.63069152832031
79,2019-05-29 00:00:00-04:00,69.0871353149414
80,2019-05-30 00:00:00-04:00,67.11274719238281
81,2019-05-31 00:00:00-04:00,65.45012664794922
82,2019-06-03 00:00:00-04:00,66.305419921875
83,2019-06-04 00:00:00-04:00,67.36854553222656
84,2019-06-05 00:00:00-04:00,65.57002258300781
85,2019-06-06 00:00:00-04:00,67.36054992675781
86,2019-06-07 00:00:00-04:00,67.62433624267578
87,2019-06-10 00:00:00-04:00,68.10394287109375
88,2019-06-11 00:00:00-04:00,69.14307403564453
89,2019-06-12 00:00:00-04:00,67.96806335449219
90,2019-06-13 00:00:00-04:00,69.13507843017578
91,2019-06-14 00:00:00-04:00,68.07996368408203
92,2019-06-17 00:00:00-04:00,68.31975555419922
93,2019-06-18 00:00:00-04:00,70.5819091796875
94,2019-06-19 00:00:00-04:00,70.86165618896484
95,2019-06-20 00:00:00-04:00,73.09982299804688
96,2019-06-21 00:00:00-04:00,73.8352279663086
97,2019-06-24 00:00:00-04:00,72.3884048461914
98,2019-06-25 00:00:00-04:00,71.97274780273438
99,2019-06-26 00:00:00-04:00,74.4107437133789
100,2019-06-27 00:00:00-04:00,73.62741088867188
101,2019-06-28 00:00:00-04:00,74.46672058105469
102,2019-07-01 00:00:00-04:00,74.4107437133789
103,2019-07-02 00:00:00-04:00,69.99038696289062
104,2019-07-03 00:00:00-04:00,69.70262908935547
105,2019-07-05 00:00:00-04:00,70.7977294921875
106,2019-07-08 00:00:00-04:00,72.06067657470703
107,2019-07-09 00:00:00-04:00,71.2613296508789
108,2019-07-10 00:00:00-04:00,72.46834564208984
109,2019-07-11 00:00:00-04:00,72.61221313476562
110,2019-07-12 00:00:00-04:00,72.66019439697266
111,2019-07-15 00:00:00-04:00,70.94160461425781
112,2019-07-16 00:00:00-04:00,69.76915740966797
113,2019-07-17 00:00:00-04:00,68.31766510009766
114,2019-07-18 00:00:00-04:00,68.51012420654297
115,2019-07-19 00:00:00-04:00,69.80123138427734
116,2019-07-22 00:00:00-04:00,69.93756866455078
117,2019-07-23 00:00:00-04:00,70.24231719970703
118,2019-07-24 00:00:00-04:00,70.3144760131836
119,2019-07-25 00:00:00-04:00,68.54217529296875
120,2019-07-26 00:00:00-04:00,67.59587860107422
121,2019-07-29 00:00:00-04:00,67.29917907714844
122,2019-07-30 00:00:00-04:00,69.01533508300781
123,2019-07-31 00:00:00-04:00,68.84691619873047
124,2019-08-01 00:00:00-04:00,65.01363372802734
125,2019-08-02 00:00:00-04:00,66.1283187866211
126,2019-08-05 00:00:00-04:00,63.35358810424805
127,2019-08-06 00:00:00-04:00,62.776214599609375
128,2019-08-07 00:00:00-04:00,62.190799713134766
129,2019-08-08 00:00:00-04:00,64.44422912597656
130,2019-08-09 00:00:00-04:00,63.65031814575195
131,2019-08-12 00:00:00-04:00,62.48750686645508
132,2019-08-13 00:00:00-04:00,62.968666076660156
133,2019-08-14 00:00:00-04:00,60.161865234375
134,2019-08-15 00:00:00-04:00,60.097694396972656
135,2019-08-16 00:00:00-04:00,60.88361358642578
136,2019-08-19 00:00:00-04:00,62.399269104003906
137,2019-08-20 00:00:00-04:00,61.501121520996094
138,2019-08-21 00:00:00-04:00,61.926143646240234
139,2019-08-22 00:00:00-04:00,60.55481719970703
140,2019-08-23 00:00:00-04:00,57.53950500488281
141,2019-08-26 00:00:00-04:00,57.94047546386719
142,2019-08-27 00:00:00-04:00,57.46733474731445
143,2019-08-28 00:00:00-04:00,58.16502380371094
144,2019-08-29 00:00:00-04:00,59.728816986083984
145,2019-08-30 00:00:00-04:00,59.49625015258789
146,2019-09-03 00:00:00-04:00,59.44813919067383
147,2019-09-04 00:00:00-04:00,60.60293197631836
148,2019-09-05 00:00:00-04:00,60.626991271972656
149,2019-09-06 00:00:00-04:00,61.300636291503906
150,2019-09-09 00:00:00-04:00,64.15557098388672
151,2019-09-10 00:00:00-04:00,64.23573303222656
152,2019-09-11 00:00:00-04:00,64.98155212402344
153,2019-09-12 00:00:00-04:00,63.89892578125
154,2019-09-13 00:00:00-04:00,63.66636657714844
155,2019-09-16 00:00:00-04:00,68.67850494384766
156,2019-09-17 00:00:00-04:00,65.13391876220703
157,2019-09-18 00:00:00-04:00,65.21411895751953
158,2019-09-19 00:00:00-04:00,65.4466781616211
159,2019-09-20 00:00:00-04:00,64.95751190185547
160,2019-09-23 00:00:00-04:00,64.25980377197266
161,2019-09-24 00:00:00-04:00,63.00074005126953
162,2019-09-25 00:00:00-04:00,61.565269470214844
163,2019-09-26 00:00:00-04:00,60.21800231933594
164,2019-09-27 00:00:00-04:00,60.12979507446289
165,2019-09-30 00:00:00-04:00,59.52031707763672
166,2019-10-01 00:00:00-04:00,57.403167724609375
167,2019-10-02 00:00:00-04:00,55.9757194519043
168,2019-10-03 00:00:00-04:00,56.80972671508789
169,2019-10-04 00:00:00-04:00,56.873897552490234
170,2019-10-07 00:00:00-04:00,55.94363021850586
171,2019-10-08 00:00:00-04:00,55.11763381958008
172,2019-10-09 00:00:00-04:00,55.0053596496582
173,2019-10-10 00:00:00-04:00,55.26198959350586
174,2019-10-11 00:00:00-04:00,55.534645080566406
175,2019-10-14 00:00:00-04:00,54.68458557128906
176,2019-10-15 00:00:00-04:00,55.534645080566406
177,2019-10-16 00:00:00-04:00,54.9049072265625
178,2019-10-17 00:00:00-04:00,53.76944351196289
179,2019-10-18 00:00:00-04:00,51.893104553222656
180,2019-10-21 00:00:00-04:00,54.48615646362305
181,2019-10-22 00:00:00-04:00,56.02425765991211
182,2019-10-23 00:00:00-04:00,57.93282699584961
183,2019-10-24 00:00:00-04:00,57.95697784423828
184,2019-10-25 00:00:00-04:00,58.367671966552734
185,2019-10-28 00:00:00-04:00,57.21609878540039
186,2019-10-29 00:00:00-04:00,57.828121185302734
187,2019-10-30 00:00:00-04:00,56.06453323364258
188,2019-10-31 00:00:00-04:00,55.81488800048828
189,2019-11-01 00:00:00-04:00,57.29662322998047
190,2019-11-04 00:00:00-05:00,59.34207534790039
191,2019-11-05 00:00:00-05:00,59.59977722167969
192,2019-11-06 00:00:00-05:00,57.51405715942383
193,2019-11-07 00:00:00-05:00,60.18762969970703
194,2019-11-08 00:00:00-05:00,60.155418395996094
195,2019-11-11 00:00:00-05:00,59.4467658996582
196,2019-11-12 00:00:00-05:00,59.01996612548828
197,2019-11-13 00:00:00-05:00,58.472354888916016
198,2019-11-14 00:00:00-05:00,58.262996673583984
199,2019-11-15 00:00:00-05:00,59.1729736328125
200,2019-11-18 00:00:00-05:00,57.38521957397461
201,2019-11-19 00:00:00-05:00,56.69265365600586
202,2019-11-20 00:00:00-05:00,58.02944564819336
203,2019-11-21 00:00:00-05:00,59.04411697387695
204,2019-11-22 00:00:00-05:00,58.77836608886719
205,2019-11-25 00:00:00-05:00,59.205177307128906
206,2019-11-26 00:00:00-05:00,57.90864562988281
207,2019-11-27 00:00:00-05:00,58.262996673583984
208,2019-11-29 00:00:00-05:00,57.095298767089844
209,2019-12-02 00:00:00-05:00,57.0067253112793
210,2019-12-03 00:00:00-05:00,55.388084411621094
211,2019-12-04 00:00:00-05:00,58.02139663696289
212,2019-12-05 00:00:00-05:00,56.84565353393555
213,2019-12-06 00:00:00-05:00,59.55950927734375
214,2019-12-09 00:00:00-05:00,60.00241470336914
215,2019-12-10 00:00:00-05:00,60.26816177368164
216,2019-12-11 00:00:00-05:00,60.13126754760742
217,2019-12-12 00:00:00-05:00,61.774070739746094
218,2019-12-13 00:00:00-05:00,60.791603088378906
219,2019-12-16 00:00:00-05:00,62.74043273925781
220,2019-12-17 00:00:00-05:00,63.465187072753906
221,2019-12-18 00:00:00-05:00,64.89859771728516
222,2019-12-19 00:00:00-05:00,65.43010711669922
223,2019-12-20 00:00:00-05:00,66.56555938720703
224,2019-12-23 00:00:00-05:00,67.14537811279297
225,2019-12-24 00:00:00-05:00,67.49163818359375
226,2019-12-26 00:00:00-05:00,67.36280059814453
227,2019-12-27 00:00:00-05:00,66.95207977294922
228,2019-12-30 00:00:00-05:00,66.34812927246094
229,2019-12-31 00:00:00-05:00,67.45137786865234
230,2020-01-02 00:00:00-05:00,67.75740814208984
231,2020-01-03 00:00:00-05:00,68.44188690185547
232,2020-01-06 00:00:00-05:00,71.22016143798828
233,2020-01-07 00:00:00-05:00,71.9046401977539
234,2020-01-08 00:00:00-05:00,70.33432006835938
235,2020-01-09 00:00:00-05:00,71.06714630126953
236,2020-01-10 00:00:00-05:00,69.47268676757812
237,2020-01-13 00:00:00-05:00,68.86869812011719
238,2020-01-14 00:00:00-05:00,69.52099609375
239,2020-01-15 00:00:00-05:00,69.85114288330078
240,2020-01-16 00:00:00-05:00,70.31007385253906
241,2020-01-17 00:00:00-05:00,68.9284439086914
242,2020-01-21 00:00:00-05:00,67.9023208618164
243,2020-01-22 00:00:00-05:00,67.1347427368164
244,2020-01-23 00:00:00-05:00,66.11668395996094
245,2020-01-24 00:00:00-05:00,64.51689910888672
246,2020-01-27 00:00:00-05:00,61.92327880859375
247,2020-01-28 00:00:00-05:00,62.254573822021484
248,2020-01-29 00:00:00-05:00,60.71133804321289
249,2020-01-30 00:00:00-05:00,61.26074981689453
250,2020-01-31 00:00:00-05:00,58.90953826904297
251,2020-02-03 00:00:00-05:00,57.66526794433594
252,2020-02-04 00:00:00-05:00,59.48320770263672
253,2020-02-05 00:00:00-05:00,62.254573822021484
254,2020-02-06 00:00:00-05:00,61.30113983154297
255,2020-02-07 00:00:00-05:00,60.07301330566406
256,2020-02-10 00:00:00-05:00,59.54782485961914
257,2020-02-11 00:00:00-05:00,60.42852783203125
258,2020-02-12 00:00:00-05:00,60.905235290527344
259,2020-02-13 00:00:00-05:00,61.14763641357422
260,2020-02-14 00:00:00-05:00,60.533565521240234
261,2020-02-18 00:00:00-05:00,60.218467712402344
262,2020-02-19 00:00:00-05:00,62.440406799316406
263,2020-02-20 00:00:00-05:00,61.398109436035156
264,2020-02-21 00:00:00-05:00,59.95990753173828
265,2020-02-24 00:00:00-05:00,56.48561477661133
266,2020-02-25 00:00:00-05:00,54.12632369995117
267,2020-02-26 00:00:00-05:00,51.0640983581543
268,2020-02-27 00:00:00-05:00,48.47857666015625
269,2020-02-28 00:00:00-05:00,51.11256408691406
270,2020-03-02 00:00:00-05:00,50.78938674926758
271,2020-03-03 00:00:00-05:00,50.44195556640625
272,2020-03-04 00:00:00-05:00,51.775115966796875
273,2020-03-05 00:00:00-05:00,49.98948287963867
274,2020-03-06 00:00:00-05:00,44.68107986450195
275,2020-03-09 00:00:00-04:00,30.379901885986328
276,2020-03-10 00:00:00-04:00,33.61180877685547
277,2020-03-11 00:00:00-04:00,31.397958755493164
278,2020-03-12 00:00:00-04:00,26.25922393798828
279,2020-03-13 00:00:00-04:00,28.117570877075195
280,2020-03-16 00:00:00-04:00,25.1280574798584
281,2020-03-17 00:00:00-04:00,24.958383560180664
282,2020-03-18 00:00:00-04:00,24.045368194580078
283,2020-03-19 00:00:00-04:00,26.84096908569336
284,2020-03-20 00:00:00-04:00,28.19028663635254
285,2020-03-23 00:00:00-04:00,27.907499313354492
286,2020-03-24 00:00:00-04:00,32.15745544433594
287,2020-03-25 00:00:00-04:00,32.06856918334961
288,2020-03-26 00:00:00-04:00,31.93928337097168
289,2020-03-27 00:00:00-04:00,29.087142944335938
290,2020-03-30 00:00:00-04:00,28.26300811767578
291,2020-03-31 00:00:00-04:00,29.022506713867188
292,2020-04-01 00:00:00-04:00,27.955970764160156
293,2020-04-02 00:00:00-04:00,30.945486068725586
294,2020-04-03 00:00:00-04:00,32.23017120361328
295,2020-04-06 00:00:00-04:00,31.85849952697754
296,2020-04-07 00:00:00-04:00,33.393653869628906
297,2020-04-08 00:00:00-04:00,36.59324264526367
298,2020-04-09 00:00:00-04:00,36.2134895324707
299,2020-04-13 00:00:00-04:00,34.97728729248047
300,2020-04-14 00:00:00-04:00,34.12084197998047
301,2020-04-15 00:00:00-04:00,32.51893615722656
302,2020-04-16 00:00:00-04:00,29.771656036376953
303,2020-04-17 00:00:00-04:00,34.10860824584961
304,2020-04-20 00:00:00-04:00,33.56240463256836
305,2020-04-21 00:00:00-04:00,33.01622009277344
306,2020-04-22 00:00:00-04:00,35.176536560058594
307,2020-04-23 00:00:00-04:00,36.0488166809082
308,2020-04-24 00:00:00-04:00,35.347740173339844
309,2020-04-27 00:00:00-04:00,36.309688568115234
310,2020-04-28 00:00:00-04:00,36.66838455200195
311,2020-04-29 00:00:00-04:00,38.902076721191406
312,2020-04-30 00:00:00-04:00,38.73087692260742
313,2020-05-01 00:00:00-04:00,36.33414840698242
314,2020-05-04 00:00:00-04:00,38.10315704345703
315,2020-05-05 00:00:00-04:00,37.54065704345703
316,2020-05-06 00:00:00-04:00,37.369468688964844
317,2020-05-07 00:00:00-04:00,39.383056640625
318,2020-05-08 00:00:00-04:00,41.942832946777344
319,2020-05-11 00:00:00-04:00,40.63032913208008
320,2020-05-12 00:00:00-04:00,40.532501220703125
321,2020-05-13 00:00:00-04:00,39.29338073730469
322,2020-05-14 00:00:00-04:00,38.771636962890625
323,2020-05-15 00:00:00-04:00,38.86945724487305
324,2020-05-18 00:00:00-04:00,42.7498779296875
325,2020-05-19 00:00:00-04:00,41.298797607421875
326,2020-05-20 00:00:00-04:00,42.92108154296875
327,2020-05-21 00:00:00-04:00,42.65205764770508
328,2020-05-22 00:00:00-04:00,42.61944580078125
329,2020-05-26 00:00:00-04:00,41.93467330932617
330,2020-05-27 00:00:00-04:00,42.986297607421875
331,2020-05-28 00:00:00-04:00,42.09771728515625
332,2020-05-29 00:00:00-04:00,41.55152130126953
333,2020-06-01 00:00:00-04:00,42.23630142211914
334,2020-06-02 00:00:00-04:00,44.68195343017578
335,2020-06-03 00:00:00-04:00,45.13846969604492
336,2020-06-04 00:00:00-04:00,44.95912551879883
337,2020-06-05 00:00:00-04:00,48.35042190551758
338,2020-06-08 00:00:00-04:00,50.63302230834961
339,2020-06-09 00:00:00-04:00,48.48084259033203
340,2020-06-10 00:00:00-04:00,45.35042953491211
341,2020-06-11 00:00:00-04:00,41.69825744628906
342,2020-06-12 00:00:00-04:00,42.855873107910156
343,2020-06-15 00:00:00-04:00,42.562381744384766
344,2020-06-16 00:00:00-04:00,44.51074981689453
345,2020-06-17 00:00:00-04:00,42.782501220703125
346,2020-06-18 00:00:00-04:00,43.14934158325195
347,2020-06-19 00:00:00-04:00,42.6357536315918
348,2020-06-22 00:00:00-04:00,42.73358154296875
349,2020-06-23 00:00:00-04:00,42.76618194580078
350,2020-06-24 00:00:00-04:00,39.904781341552734
351,2020-06-25 00:00:00-04:00,41.355865478515625
352,2020-06-26 00:00:00-04:00,39.74988555908203
353,2020-06-29 00:00:00-04:00,40.475433349609375
354,2020-06-30 00:00:00-04:00,41.298797607421875
355,2020-07-01 00:00:00-04:00,40.64663314819336
356,2020-07-02 00:00:00-04:00,41.18467712402344
357,2020-07-06 00:00:00-04:00,41.095001220703125
358,2020-07-07 00:00:00-04:00,39.22001266479492
359,2020-07-08 00:00:00-04:00,38.67380905151367
360,2020-07-09 00:00:00-04:00,36.14664840698242
361,2020-07-10 00:00:00-04:00,37.010765075683594
362,2020-07-13 00:00:00-04:00,36.643924713134766
363,2020-07-14 00:00:00-04:00,38.54336929321289
364,2020-07-15 00:00:00-04:00,38.69011306762695
365,2020-07-16 00:00:00-04:00,39.294071197509766
366,2020-07-17 00:00:00-04:00,38.75175476074219
367,2020-07-20 00:00:00-04:00,39.19546127319336
368,2020-07-21 00:00:00-04:00,41.430503845214844
369,2020-07-22 00:00:00-04:00,41.241519927978516
370,2020-07-23 00:00:00-04:00,40.14042282104492
371,2020-07-24 00:00:00-04:00,40.29655075073242
372,2020-07-27 00:00:00-04:00,39.90212631225586
373,2020-07-28 00:00:00-04:00,38.842132568359375
374,2020-07-29 00:00:00-04:00,39.85283660888672
375,2020-07-30 00:00:00-04:00,38.275150299072266
376,2020-07-31 00:00:00-04:00,38.49700927734375
377,2020-08-03 00:00:00-04:00,38.10258483886719
378,2020-08-04 00:00:00-04:00,39.81996154785156
379,2020-08-05 00:00:00-04:00,41.70167922973633
380,2020-08-06 00:00:00-04:00,41.81670379638672
381,2020-08-07 00:00:00-04:00,40.10755920410156
382,2020-08-10 00:00:00-04:00,41.4633674621582
383,2020-08-11 00:00:00-04:00,40.608795166015625
384,2020-08-12 00:00:00-04:00,40.33762741088867
385,2020-08-13 00:00:00-04:00,38.965389251708984
386,2020-08-14 00:00:00-04:00,39.41733169555664
387,2020-08-17 00:00:00-04:00,38.24228286743164
388,2020-08-18 00:00:00-04:00,38.08616256713867
389,2020-08-19 00:00:00-04:00,37.47809600830078
390,2020-08-20 00:00:00-04:00,36.237308502197266
391,2020-08-21 00:00:00-04:00,35.65391159057617
392,2020-08-24 00:00:00-04:00,36.42631530761719
393,2020-08-25 00:00:00-04:00,36.46739196777344
394,2020-08-26 00:00:00-04:00,35.54707717895508
395,2020-08-27 00:00:00-04:00,36.93577194213867
396,2020-08-28 00:00:00-04:00,37.97111892700195
397,2020-08-31 00:00:00-04:00,37.25623321533203
398,2020-09-01 00:00:00-04:00,37.1494140625
399,2020-09-02 00:00:00-04:00,35.90863037109375
400,2020-09-03 00:00:00-04:00,35.44025421142578
401,2020-09-04 00:00:00-04:00,35.44847869873047
402,2020-09-08 00:00:00-04:00,33.55032730102539
403,2020-09-09 00:00:00-04:00,34.39668273925781
404,2020-09-10 00:00:00-04:00,31.224895477294922
405,2020-09-11 00:00:00-04:00,32.08769607543945
406,2020-09-14 00:00:00-04:00,32.18629455566406
407,2020-09-15 00:00:00-04:00,31.709701538085938
408,2020-09-16 00:00:00-04:00,33.574989318847656
409,2020-09-17 00:00:00-04:00,33.846153259277344
410,2020-09-18 00:00:00-04:00,33.45173263549805
411,2020-09-21 00:00:00-04:00,31.890485763549805
412,2020-09-22 00:00:00-04:00,31.59465980529785
413,2020-09-23 00:00:00-04:00,29.89373207092285
414,2020-09-24 00:00:00-04:00,30.11559295654297
415,2020-09-25 00:00:00-04:00,30.77295684814453
416,2020-09-28 00:00:00-04:00,30.76474380493164
417,2020-09-29 00:00:00-04:00,29.737611770629883
418,2020-09-30 00:00:00-04:00,29.532175064086914
419,2020-10-01 00:00:00-04:00,28.644737243652344
420,2020-10-02 00:00:00-04:00,28.603652954101562
421,2020-10-05 00:00:00-04:00,29.959468841552734
422,2020-10-06 00:00:00-04:00,29.573265075683594
423,2020-10-07 00:00:00-04:00,30.164897918701172
424,2020-10-08 00:00:00-04:00,30.9537353515625
425,2020-10-09 00:00:00-04:00,30.863346099853516
426,2020-10-12 00:00:00-04:00,31.39745330810547
427,2020-10-13 00:00:00-04:00,31.750795364379883
428,2020-10-14 00:00:00-04:00,30.912662506103516
429,2020-10-15 00:00:00-04:00,31.605680465698242
430,2020-10-16 00:00:00-04:00,31.057899475097656
431,2020-10-19 00:00:00-04:00,30.037023544311523
432,2020-10-20 00:00:00-04:00,30.111709594726562
433,2020-10-21 00:00:00-04:00,29.148942947387695
434,2020-10-22 00:00:00-04:00,30.651203155517578
435,2020-10-23 00:00:00-04:00,31.13259506225586
436,2020-10-26 00:00:00-04:00,28.991247177124023
437,2020-10-27 00:00:00-04:00,28.700756072998047
438,2020-10-28 00:00:00-04:00,26.982690811157227
439,2020-10-29 00:00:00-04:00,28.194461822509766
440,2020-10-30 00:00:00-04:00,28.418560028076172
441,2020-11-02 00:00:00-05:00,29.173845291137695
442,2020-11-03 00:00:00-05:00,29.065946578979492
443,2020-11-04 00:00:00-05:00,29.912525177001953
444,2020-11-05 00:00:00-05:00,29.547321319580078
445,2020-11-06 00:00:00-05:00,28.700756072998047
446,2020-11-09 00:00:00-05:00,33.45654296875
447,2020-11-10 00:00:00-05:00,35.016902923583984
448,2020-11-11 00:00:00-05:00,34.78451156616211
449,2020-11-12 00:00:00-05:00,33.6059455871582
450,2020-11-13 00:00:00-05:00,35.41529083251953
451,2020-11-16 00:00:00-05:00,37.639644622802734
452,2020-11-17 00:00:00-05:00,37.90523910522461
453,2020-11-18 00:00:00-05:00,37.291053771972656
454,2020-11-19 00:00:00-05:00,37.73093795776367
455,2020-11-20 00:00:00-05:00,37.672847747802734
456,2020-11-23 00:00:00-05:00,41.814456939697266
457,2020-11-24 00:00:00-05:00,45.167579650878906
458,2020-11-25 00:00:00-05:00,43.9890022277832
459,2020-11-27 00:00:00-05:00,42.685935974121094
460,2020-11-30 00:00:00-05:00,38.909523010253906
461,2020-12-01 00:00:00-05:00,38.61903381347656
462,2020-12-02 00:00:00-05:00,39.689701080322266
463,2020-12-03 00:00:00-05:00,39.98018264770508
464,2020-12-04 00:00:00-05:00,43.9890022277832
465,2020-12-07 00:00:00-05:00,42.80213165283203
466,2020-12-08 00:00:00-05:00,43.28352355957031
467,2020-12-09 00:00:00-05:00,43.95580291748047
468,2020-12-10 00:00:00-05:00,45.38336944580078
469,2020-12-11 00:00:00-05:00,44.486995697021484
470,2020-12-14 00:00:00-05:00,43.22542953491211
471,2020-12-15 00:00:00-05:00,44.121795654296875
472,2020-12-16 00:00:00-05:00,43.73999786376953
473,2020-12-17 00:00:00-05:00,43.28352355957031
474,2020-12-18 00:00:00-05:00,42.96813201904297
475,2020-12-21 00:00:00-05:00,41.56545639038086
476,2020-12-22 00:00:00-05:00,40.54457473754883
477,2020-12-23 00:00:00-05:00,41.56545639038086
478,2020-12-24 00:00:00-05:00,41.16706466674805
479,2020-12-28 00:00:00-05:00,40.6192741394043
480,2020-12-29 00:00:00-05:00,40.39518737792969
481,2020-12-30 00:00:00-05:00,41.96385192871094
482,2020-12-31 00:00:00-05:00,41.39115524291992
483,2021-01-04 00:00:00-05:00,41.38286209106445
484,2021-01-05 00:00:00-05:00,44.752586364746094
485,2021-01-06 00:00:00-05:00,45.69878005981445
486,2021-01-07 00:00:00-05:00,48.65349578857422
487,2021-01-08 00:00:00-05:00,48.86099624633789
488,2021-01-11 00:00:00-05:00,49.47517776489258
489,2021-01-12 00:00:00-05:00,51.82402420043945
490,2021-01-13 00:00:00-05:00,50.188961029052734
491,2021-01-14 00:00:00-05:00,51.98038101196289
492,2021-01-15 00:00:00-05:00,49.433143615722656
493,2021-01-19 00:00:00-05:00,50.510501861572266
494,2021-01-20 00:00:00-05:00,50.27665710449219
495,2021-01-21 00:00:00-05:00,45.95887756347656
496,2021-01-22 00:00:00-05:00,45.81689453125
497,2021-01-25 00:00:00-05:00,46.10084533691406
498,2021-01-26 00:00:00-05:00,44.6727294921875
499,2021-01-27 00:00:00-05:00,45.94216537475586
500,2021-01-28 00:00:00-05:00,44.86482238769531
501,2021-01-29 00:00:00-05:00,42.55977249145508
502,2021-02-01 00:00:00-05:00,42.8687858581543
503,2021-02-02 00:00:00-05:00,42.81031799316406
504,2021-02-03 00:00:00-05:00,46.668758392333984
505,2021-02-04 00:00:00-05:00,47.996665954589844
506,2021-02-05 00:00:00-05:00,47.27843475341797
507,2021-02-08 00:00:00-05:00,49.616878509521484
508,2021-02-09 00:00:00-05:00,48.623043060302734
509,2021-02-10 00:00:00-05:00,50.28499984741211
510,2021-02-11 00:00:00-05:00,49.808963775634766
511,2021-02-12 00:00:00-05:00,50.96149444580078
512,2021-02-16 00:00:00-05:00,52.698612213134766
513,2021-02-17 00:00:00-05:00,53.06608963012695
514,2021-02-18 00:00:00-05:00,50.585662841796875
515,2021-02-19 00:00:00-05:00,52.20587158203125
516,2021-02-22 00:00:00-05:00,55.2041015625
517,2021-02-23 00:00:00-05:00,56.665626525878906
518,2021-02-24 00:00:00-05:00,60.4405632019043
519,2021-02-25 00:00:00-05:00,58.95397186279297
520,2021-02-26 00:00:00-05:00,53.91794204711914
521,2021-03-01 00:00:00-05:00,54.26872253417969
522,2021-03-02 00:00:00-05:00,53.84279251098633
523,2021-03-03 00:00:00-05:00,55.947391510009766
524,2021-03-04 00:00:00-05:00,59.655521392822266
525,2021-03-05 00:00:00-05:00,62.28626251220703
526,2021-03-08 00:00:00-05:00,62.294620513916016
527,2021-03-09 00:00:00-05:00,61.47615051269531
528,2021-03-10 00:00:00-05:00,62.72889709472656
529,2021-03-11 00:00:00-05:00,62.89592742919922
530,2021-03-12 00:00:00-05:00,62.63704299926758
531,2021-03-15 00:00:00-04:00,62.10252380371094
532,2021-03-16 00:00:00-04:00,59.00406265258789
533,2021-03-17 00:00:00-04:00,61.12539291381836
534,2021-03-18 00:00:00-04:00,57.54254913330078
535,2021-03-19 00:00:00-04:00,58.52803421020508
536,2021-03-22 00:00:00-04:00,56.98299789428711
537,2021-03-23 00:00:00-04:00,58.168914794921875
538,2021-03-24 00:00:00-04:00,60.58253479003906
539,2021-03-25 00:00:00-04:00,61.000118255615234
540,2021-03-26 00:00:00-04:00,62.53680419921875
541,2021-03-29 00:00:00-04:00,61.50120544433594
542,2021-03-30 00:00:00-04:00,61.18385314941406
543,2021-03-31 00:00:00-04:00,60.57415771484375
544,2021-04-01 00:00:00-04:00,62.92097854614258
545,2021-04-05 00:00:00-04:00,59.95615768432617
546,2021-04-06 00:00:00-04:00,60.38209915161133
547,2021-04-07 00:00:00-04:00,61.21723937988281
548,2021-04-08 00:00:00-04:00,60.29023361206055
549,2021-04-09 00:00:00-04:00,59.939456939697266
550,2021-04-12 00:00:00-04:00,58.54474639892578
551,2021-04-13 00:00:00-04:00,58.795291900634766
552,2021-04-14 00:00:00-04:00,61.9020881652832
553,2021-04-15 00:00:00-04:00,61.16554260253906
554,2021-04-16 00:00:00-04:00,59.21711730957031
555,2021-04-19 00:00:00-04:00,59.8721923828125
556,2021-04-20 00:00:00-04:00,57.58782958984375
557,2021-04-21 00:00:00-04:00,57.915367126464844
558,2021-04-22 00:00:00-04:00,57.40305709838867
559,2021-04-23 00:00:00-04:00,57.99934005737305
560,2021-04-26 00:00:00-04:00,58.64603042602539
561,2021-04-27 00:00:00-04:00,60.19974136352539
562,2021-04-28 00:00:00-04:00,62.971195220947266
563,2021-04-29 00:00:00-04:00,63.769046783447266
564,2021-04-30 00:00:00-04:00,61.845821380615234
565,2021-05-03 00:00:00-04:00,63.802642822265625
566,2021-05-04 00:00:00-04:00,62.996402740478516
567,2021-05-05 00:00:00-04:00,64.42412567138672
568,2021-05-06 00:00:00-04:00,64.65088653564453
569,2021-05-07 00:00:00-04:00,69.79070281982422
570,2021-05-10 00:00:00-04:00,71.00848388671875
571,2021-05-11 00:00:00-04:00,68.98445892333984
572,2021-05-12 00:00:00-04:00,68.32938385009766
573,2021-05-13 00:00:00-04:00,66.83446502685547
574,2021-05-14 00:00:00-04:00,69.37078857421875
575,2021-05-17 00:00:00-04:00,71.47038269042969
576,2021-05-18 00:00:00-04:00,69.6815185546875
577,2021-05-19 00:00:00-04:00,67.64070892333984
578,2021-05-20 00:00:00-04:00,67.62389373779297
579,2021-05-21 00:00:00-04:00,67.24600219726562
580,2021-05-24 00:00:00-04:00,67.30477142333984
581,2021-05-25 00:00:00-04:00,66.07862854003906
582,2021-05-26 00:00:00-04:00,66.85126495361328
583,2021-05-27 00:00:00-04:00,67.46432495117188
584,2021-05-28 00:00:00-04:00,67.47273254394531
585,2021-06-01 00:00:00-04:00,71.04206085205078
586,2021-06-02 00:00:00-04:00,71.61315155029297
587,2021-06-03 00:00:00-04:00,72.90650939941406
588,2021-06-04 00:00:00-04:00,73.45240020751953
589,2021-06-07 00:00:00-04:00,73.0912857055664
590,2021-06-08 00:00:00-04:00,73.39361572265625
591,2021-06-09 00:00:00-04:00,72.06666564941406
592,2021-06-10 00:00:00-04:00,72.3690185546875
593,2021-06-11 00:00:00-04:00,71.75594329833984
594,2021-06-14 00:00:00-04:00,71.26881408691406
595,2021-06-15 00:00:00-04:00,71.89031219482422
596,2021-06-16 00:00:00-04:00,71.1428451538086
597,2021-06-17 00:00:00-04:00,68.3881607055664
598,2021-06-18 00:00:00-04:00,66.60771179199219
599,2021-06-21 00:00:00-04:00,71.37798309326172
600,2021-06-22 00:00:00-04:00,71.34441375732422
601,2021-06-23 00:00:00-04:00,71.9742660522461
602,2021-06-24 00:00:00-04:00,72.30183410644531
603,2021-06-25 00:00:00-04:00,73.61197662353516
604,2021-06-28 00:00:00-04:00,69.6815185546875
605,2021-06-29 00:00:00-04:00,69.12721252441406
606,2021-06-30 00:00:00-04:00,70.07624816894531
607,2021-07-01 00:00:00-04:00,72.21784210205078
608,2021-07-02 00:00:00-04:00,72.0330810546875
609,2021-07-06 00:00:00-04:00,70.31140899658203
610,2021-07-07 00:00:00-04:00,68.10260772705078
611,2021-07-08 00:00:00-04:00,67.0948257446289
612,2021-07-09 00:00:00-04:00,69.36238098144531
613,2021-07-12 00:00:00-04:00,69.95866394042969
614,2021-07-13 00:00:00-04:00,69.47996520996094
615,2021-07-14 00:00:00-04:00,66.9016342163086
616,2021-07-15 00:00:00-04:00,65.14290618896484
617,2021-07-16 00:00:00-04:00,63.19350051879883
618,2021-07-19 00:00:00-04:00,60.141109466552734
619,2021-07-20 00:00:00-04:00,61.1329345703125
620,2021-07-21 00:00:00-04:00,63.43290710449219
621,2021-07-22 00:00:00-04:00,63.013946533203125
622,2021-07-23 00:00:00-04:00,61.99648666381836
623,2021-07-26 00:00:00-04:00,63.415794372558594
624,2021-07-27 00:00:00-04:00,62.1845817565918
625,2021-07-28 00:00:00-04:00,62.67192840576172
626,2021-07-29 00:00:00-04:00,63.022499084472656
627,2021-07-30 00:00:00-04:00,62.29572677612305
628,2021-08-02 00:00:00-04:00,61.235538482666016
629,2021-08-03 00:00:00-04:00,62.996826171875
630,2021-08-04 00:00:00-04:00,60.48312759399414
631,2021-08-05 00:00:00-04:00,60.48312759399414
632,2021-08-06 00:00:00-04:00,60.64557647705078
633,2021-08-09 00:00:00-04:00,59.3203239440918
634,2021-08-10 00:00:00-04:00,58.76456069946289
635,2021-08-11 00:00:00-04:00,59.388710021972656
636,2021-08-12 00:00:00-04:00,59.670875549316406
637,2021-08-13 00:00:00-04:00,58.140403747558594
638,2021-08-16 00:00:00-04:00,56.36199951171875
639,2021-08-17 00:00:00-04:00,56.40474319458008
640,2021-08-18 00:00:00-04:00,55.88318634033203
641,2021-08-19 00:00:00-04:00,54.94268035888672
642,2021-08-20 00:00:00-04:00,55.12224578857422
643,2021-08-23 00:00:00-04:00,57.832603454589844
644,2021-08-24 00:00:00-04:00,58.52516174316406
645,2021-08-25 00:00:00-04:00,58.76456069946289
646,2021-08-26 00:00:00-04:00,57.65305709838867
647,2021-08-27 00:00:00-04:00,59.53406524658203
648,2021-08-30 00:00:00-04:00,57.61884689331055
649,2021-08-31 00:00:00-04:00,57.72999572753906
650,2021-09-01 00:00:00-04:00,56.738197326660156
651,2021-09-02 00:00:00-04:00,58.44821548461914
652,2021-09-03 00:00:00-04:00,58.131866455078125
653,2021-09-07 00:00:00-04:00,57.85825729370117
654,2021-09-08 00:00:00-04:00,57.439300537109375
655,2021-09-09 00:00:00-04:00,57.58464431762695
656,2021-09-10 00:00:00-04:00,57.40510177612305
657,2021-09-13 00:00:00-04:00,59.927371978759766
658,2021-09-14 00:00:00-04:00,59.44001007080078
659,2021-09-15 00:00:00-04:00,64.39048767089844
660,2021-09-16 00:00:00-04:00,63.244781494140625
661,2021-09-17 00:00:00-04:00,63.48418426513672
662,2021-09-20 00:00:00-04:00,61.1585693359375
663,2021-09-21 00:00:00-04:00,61.73997497558594
664,2021-09-22 00:00:00-04:00,63.783447265625
665,2021-09-23 00:00:00-04:00,65.72431945800781
666,2021-09-24 00:00:00-04:00,66.77595520019531
667,2021-09-27 00:00:00-04:00,69.94802856445312
668,2021-09-28 00:00:00-04:00,69.879638671875
669,2021-09-29 00:00:00-04:00,70.59784698486328
670,2021-09-30 00:00:00-04:00,68.63133239746094
671,2021-10-01 00:00:00-04:00,71.7435531616211
672,2021-10-04 00:00:00-04:00,73.87252807617188
673,2021-10-05 00:00:00-04:00,74.47101593017578
674,2021-10-06 00:00:00-04:00,74.01786804199219
675,2021-10-07 00:00:00-04:00,73.3509750366211
676,2021-10-08 00:00:00-04:00,77.4036865234375
677,2021-10-11 00:00:00-04:00,77.08733367919922
678,2021-10-12 00:00:00-04:00,77.05315399169922
679,2021-10-13 00:00:00-04:00,77.30110168457031
680,2021-10-14 00:00:00-04:00,77.79325866699219
681,2021-10-15 00:00:00-04:00,76.977294921875
682,2021-10-18 00:00:00-04:00,76.71099853515625
683,2021-10-19 00:00:00-04:00,77.44109344482422
684,2021-10-20 00:00:00-04:00,79.96634674072266
685,2021-10-21 00:00:00-04:00,78.07672119140625
686,2021-10-22 00:00:00-04:00,79.02153015136719
687,2021-10-25 00:00:00-04:00,80.77373504638672
688,2021-10-26 00:00:00-04:00,81.59832000732422
689,2021-10-27 00:00:00-04:00,79.91482543945312
690,2021-10-28 00:00:00-04:00,80.57618713378906
691,2021-10-29 00:00:00-04:00,79.4166259765625
692,2021-11-01 00:00:00-04:00,80.27556610107422
693,2021-11-02 00:00:00-04:00,79.7258529663086
694,2021-11-03 00:00:00-04:00,78.1196517944336
695,2021-11-04 00:00:00-04:00,78.07672119140625
696,2021-11-05 00:00:00-04:00,81.7013931274414
697,2021-11-08 00:00:00-05:00,83.30757141113281
698,2021-11-09 00:00:00-05:00,83.41065216064453
699,2021-11-10 00:00:00-05:00,80.98848724365234
700,2021-11-11 00:00:00-05:00,81.52958679199219
701,2021-11-12 00:00:00-05:00,81.46089172363281
702,2021-11-15 00:00:00-05:00,80.05223846435547
703,2021-11-16 00:00:00-05:00,78.93563079833984
704,2021-11-17 00:00:00-05:00,77.37239837646484
705,2021-11-18 00:00:00-05:00,76.977294921875
706,2021-11-19 00:00:00-05:00,73.59308624267578
707,2021-11-22 00:00:00-05:00,74.47779083251953
708,2021-11-23 00:00:00-05:00,78.81539154052734
709,2021-11-24 00:00:00-05:00,79.92339324951172
710,2021-11-26 00:00:00-05:00,75.0876235961914
711,2021-11-29 00:00:00-05:00,75.92078399658203
712,2021-11-30 00:00:00-05:00,74.72687530517578
713,2021-12-01 00:00:00-05:00,73.30963897705078
714,2021-12-02 00:00:00-05:00,74.34893798828125
715,2021-12-03 00:00:00-05:00,73.85934448242188
716,2021-12-06 00:00:00-05:00,75.21646881103516
717,2021-12-07 00:00:00-05:00,77.78466796875
718,2021-12-08 00:00:00-05:00,77.37239837646484
719,2021-12-09 00:00:00-05:00,76.3416748046875
720,2021-12-10 00:00:00-05:00,77.02881622314453
721,2021-12-13 00:00:00-05:00,75.61157989501953
722,2021-12-14 00:00:00-05:00,74.96998596191406
723,2021-12-15 00:00:00-05:00,74.539306640625
724,2021-12-16 00:00:00-05:00,75.75220489501953
725,2021-12-17 00:00:00-05:00,73.82740783691406
726,2021-12-20 00:00:00-05:00,73.45828247070312
727,2021-12-21 00:00:00-05:00,75.89283752441406
728,2021-12-22 00:00:00-05:00,76.657470703125
729,2021-12-23 00:00:00-05:00,76.62230682373047
730,2021-12-27 00:00:00-05:00,79.78633117675781
731,2021-12-28 00:00:00-05:00,79.2941665649414
732,2021-12-29 00:00:00-05:00,78.96894836425781
733,2021-12-30 00:00:00-05:00,78.3801040649414
734,2021-12-31 00:00:00-05:00,78.07247161865234
735,2022-01-03 00:00:00-05:00,80.12031555175781
736,2022-01-04 00:00:00-05:00,83.80290222167969
737,2022-01-05 00:00:00-05:00,82.26482391357422
738,2022-01-06 00:00:00-05:00,83.95232391357422
739,2022-01-07 00:00:00-05:00,86.27261352539062
740,2022-01-10 00:00:00-05:00,86.18470764160156
741,2022-01-11 00:00:00-05:00,89.82337188720703
742,2022-01-12 00:00:00-05:00,90.3243179321289
743,2022-01-13 00:00:00-05:00,90.30662536621094
744,2022-01-14 00:00:00-05:00,93.52047729492188
745,2022-01-18 00:00:00-05:00,93.5558853149414
746,2022-01-19 00:00:00-05:00,93.07777404785156
747,2022-01-20 00:00:00-05:00,91.6346664428711
748,2022-01-21 00:00:00-05:00,89.09366607666016
749,2022-01-24 00:00:00-05:00,90.58106994628906
750,2022-01-25 00:00:00-05:00,94.68030548095703
751,2022-01-26 00:00:00-05:00,95.20264434814453
752,2022-01-27 00:00:00-05:00,97.16815185546875
753,2022-01-28 00:00:00-05:00,97.1238784790039
754,2022-01-31 00:00:00-05:00,98.69983673095703
755,2022-02-01 00:00:00-05:00,100.2049331665039
756,2022-02-02 00:00:00-05:00,99.97472381591797
757,2022-02-03 00:00:00-05:00,98.96543884277344
758,2022-02-04 00:00:00-05:00,100.66532897949219
759,2022-02-07 00:00:00-05:00,101.54182434082031
760,2022-02-08 00:00:00-05:00,98.74407958984375
761,2022-02-09 00:00:00-05:00,100.32002258300781
762,2022-02-10 00:00:00-05:00,99.74454498291016
763,2022-02-11 00:00:00-05:00,103.36565399169922
764,2022-02-14 00:00:00-05:00,100.40857696533203
765,2022-02-15 00:00:00-05:00,98.18630981445312
766,2022-02-16 00:00:00-05:00,98.95657348632812
767,2022-02-17 00:00:00-05:00,99.69142150878906
768,2022-02-18 00:00:00-05:00,98.82377624511719
769,2022-02-22 00:00:00-05:00,96.9733657836914
770,2022-02-23 00:00:00-05:00,97.68164825439453
771,2022-02-24 00:00:00-05:00,97.47802734375
772,2022-02-25 00:00:00-05:00,94.9813232421875
773,2022-02-28 00:00:00-05:00,101.7454605102539
774,2022-03-01 00:00:00-05:00,103.06465911865234
775,2022-03-02 00:00:00-05:00,103.35680389404297
776,2022-03-03 00:00:00-05:00,102.95840454101562
777,2022-03-04 00:00:00-05:00,105.13639068603516
778,2022-03-07 00:00:00-05:00,106.37589263916016
779,2022-03-08 00:00:00-05:00,104.30415344238281
780,2022-03-09 00:00:00-05:00,100.727294921875
781,2022-03-10 00:00:00-05:00,106.13683319091797
782,2022-03-11 00:00:00-05:00,103.3036880493164
783,2022-03-14 00:00:00-04:00,103.44656372070312
784,2022-03-15 00:00:00-04:00,101.64268493652344
785,2022-03-16 00:00:00-04:00,100.91041564941406
786,2022-03-17 00:00:00-04:00,105.25938415527344
787,2022-03-18 00:00:00-04:00,103.41085815429688
788,2022-03-21 00:00:00-04:00,109.35832214355469
789,2022-03-22 00:00:00-04:00,107.9026870727539
790,2022-03-23 00:00:00-04:00,110.33170318603516
791,2022-03-24 00:00:00-04:00,108.06344604492188
792,2022-03-25 00:00:00-04:00,111.18898010253906
793,2022-03-28 00:00:00-04:00,107.92948913574219
794,2022-03-29 00:00:00-04:00,107.72410583496094
795,2022-03-30 00:00:00-04:00,108.13488006591797
796,2022-03-31 00:00:00-04:00,106.473876953125
797,2022-04-01 00:00:00-04:00,107.4561996459961
798,2022-04-04 00:00:00-04:00,107.9026870727539
799,2022-04-05 00:00:00-04:00,105.22367095947266
800,2022-04-06 00:00:00-04:00,105.77733612060547
801,2022-04-07 00:00:00-04:00,107.71517944335938
802,2022-04-08 00:00:00-04:00,113.305419921875
803,2022-04-11 00:00:00-04:00,108.35813903808594
804,2022-04-12 00:00:00-04:00,111.24256134033203
805,2022-04-13 00:00:00-04:00,111.00897216796875
806,2022-04-14 00:00:00-04:00,110.45197296142578
807,2022-04-18 00:00:00-04:00,110.79336547851562
808,2022-04-19 00:00:00-04:00,109.3918228149414
809,2022-04-20 00:00:00-04:00,110.22735595703125
810,2022-04-21 00:00:00-04:00,107.35240173339844
811,2022-04-22 00:00:00-04:00,104.3247299194336
812,2022-04-25 00:00:00-04:00,100.41659545898438
813,2022-04-26 00:00:00-04:00,100.25486755371094
814,2022-04-27 00:00:00-04:00,101.3509521484375
815,2022-04-28 00:00:00-04:00,105.80711364746094
816,2022-04-29 00:00:00-04:00,104.89971923828125
817,2022-05-02 00:00:00-04:00,104.49541473388672
818,2022-05-03 00:00:00-04:00,108.49341583251953
819,2022-05-04 00:00:00-04:00,112.09607696533203
820,2022-05-05 00:00:00-04:00,110.88321685791016
821,2022-05-06 00:00:00-04:00,118.78931427001953
822,2022-05-09 00:00:00-04:00,105.95985412597656
823,2022-05-10 00:00:00-04:00,107.415283203125
824,2022-05-11 00:00:00-04:00,108.96956634521484
825,2022-05-12 00:00:00-04:00,108.268798828125
826,2022-05-13 00:00:00-04:00,111.65584564208984
827,2022-05-16 00:00:00-04:00,113.52456665039062
828,2022-05-17 00:00:00-04:00,114.47689056396484
829,2022-05-18 00:00:00-04:00,110.12852478027344
830,2022-05-19 00:00:00-04:00,109.33790588378906
831,2022-05-20 00:00:00-04:00,109.6523666381836
832,2022-05-23 00:00:00-04:00,115.06086730957031
833,2022-05-24 00:00:00-04:00,116.1209945678711
834,2022-05-25 00:00:00-04:00,119.55297088623047
835,2022-05-26 00:00:00-04:00,120.13693237304688
836,2022-05-27 00:00:00-04:00,122.94901275634766
837,2022-05-31 00:00:00-04:00,123.04784393310547
838,2022-06-01 00:00:00-04:00,125.71615600585938
839,2022-06-02 00:00:00-04:00,125.27593231201172
840,2022-06-03 00:00:00-04:00,128.0071258544922
841,2022-06-06 00:00:00-04:00,126.77627563476562
842,2022-06-07 00:00:00-04:00,131.10667419433594
843,2022-06-08 00:00:00-04:00,130.93597412109375
844,2022-06-09 00:00:00-04:00,128.01611328125
845,2022-06-10 00:00:00-04:00,129.37274169921875
846,2022-06-13 00:00:00-04:00,119.24751281738281
847,2022-06-14 00:00:00-04:00,119.54804229736328
848,2022-06-15 00:00:00-04:00,116.08712005615234
849,2022-06-16 00:00:00-04:00,108.89201354980469
850,2022-06-17 00:00:00-04:00,101.70600891113281
851,2022-06-21 00:00:00-04:00,107.1524429321289
852,2022-06-22 00:00:00-04:00,100.88632202148438
853,2022-06-23 00:00:00-04:00,97.6075439453125
854,2022-06-24 00:00:00-04:00,100.72237396240234
855,2022-06-27 00:00:00-04:00,103.60954284667969
856,2022-06-28 00:00:00-04:00,107.7535629272461
857,2022-06-29 00:00:00-04:00,103.11772155761719
858,2022-06-30 00:00:00-04:00,100.58576202392578
859,2022-07-01 00:00:00-04:00,101.66048431396484
860,2022-07-05 00:00:00-04:00,95.46722412109375
861,2022-07-06 00:00:00-04:00,91.9061050415039
862,2022-07-07 00:00:00-04:00,95.69491577148438
863,2022-07-08 00:00:00-04:00,96.10476684570312
864,2022-07-11 00:00:00-04:00,94.4471664428711
865,2022-07-12 00:00:00-04:00,90.61280822753906
866,2022-07-13 00:00:00-04:00,90.52171325683594
867,2022-07-14 00:00:00-04:00,87.29144287109375
868,2022-07-15 00:00:00-04:00,89.27367401123047
869,2022-07-18 00:00:00-04:00,91.33847045898438
870,2022-07-19 00:00:00-04:00,95.09185791015625
871,2022-07-20 00:00:00-04:00,96.88135528564453
872,2022-07-21 00:00:00-04:00,95.03678894042969
873,2022-07-22 00:00:00-04:00,92.68749237060547
874,2022-07-25 00:00:00-04:00,96.79878234863281
875,2022-07-26 00:00:00-04:00,95.21115112304688
876,2022-07-27 00:00:00-04:00,99.28573608398438
877,2022-07-28 00:00:00-04:00,98.55158233642578
878,2022-07-29 00:00:00-04:00,102.06635284423828
879,2022-08-01 00:00:00-04:00,98.72593688964844
880,2022-08-02 00:00:00-04:00,98.36804962158203
881,2022-08-03 00:00:00-04:00,95.08267974853516
882,2022-08-04 00:00:00-04:00,91.6046142578125
883,2022-08-05 00:00:00-04:00,98.2028579711914
884,2022-08-08 00:00:00-04:00,98.36804962158203
885,2022-08-09 00:00:00-04:00,99.33161926269531
886,2022-08-10 00:00:00-04:00,100.0198974609375
887,2022-08-11 00:00:00-04:00,104.1954345703125
888,2022-08-12 00:00:00-04:00,105.0672378540039
889,2022-08-15 00:00:00-04:00,103.03912353515625
890,2022-08-16 00:00:00-04:00,103.15843200683594
891,2022-08-17 00:00:00-04:00,104.33308410644531
892,2022-08-18 00:00:00-04:00,109.19688415527344
893,2022-08-19 00:00:00-04:00,108.97663879394531
894,2022-08-22 00:00:00-04:00,109.1142807006836
895,2022-08-23 00:00:00-04:00,111.75726318359375
896,2022-08-24 00:00:00-04:00,113.70276641845703
897,2022-08-25 00:00:00-04:00,114.91414642333984
898,2022-08-26 00:00:00-04:00,114.31764221191406
899,2022-08-29 00:00:00-04:00,116.15302276611328
900,2022-08-30 00:00:00-04:00,111.83067321777344
901,2022-08-31 00:00:00-04:00,111.31675720214844
902,2022-09-01 00:00:00-04:00,108.9399185180664
903,2022-09-02 00:00:00-04:00,111.5186538696289
904,2022-09-06 00:00:00-04:00,110.40824127197266
905,2022-09-07 00:00:00-04:00,107.53584289550781
906,2022-09-08 00:00:00-04:00,108.5728530883789
907,2022-09-09 00:00:00-04:00,113.20721435546875
908,2022-09-12 00:00:00-04:00,116.00621032714844
909,2022-09-13 00:00:00-04:00,112.79425811767578
910,2022-09-14 00:00:00-04:00,117.7367172241211
911,2022-09-15 00:00:00-04:00,113.8626480102539
912,2022-09-16 00:00:00-04:00,112.83140563964844
913,2022-09-19 00:00:00-04:00,111.88380432128906
914,2022-09-20 00:00:00-04:00,111.14057159423828
915,2022-09-21 00:00:00-04:00,109.84921264648438
916,2022-09-22 00:00:00-04:00,109.95140838623047
917,2022-09-23 00:00:00-04:00,101.37640380859375
918,2022-09-26 00:00:00-04:00,97.71599578857422
919,2022-09-27 00:00:00-04:00,97.96683502197266
920,2022-09-28 00:00:00-04:00,103.80118560791016
921,2022-09-29 00:00:00-04:00,104.95320129394531
922,2022-09-30 00:00:00-04:00,103.80118560791016
923,2022-10-03 00:00:00-04:00,111.4192886352539
924,2022-10-04 00:00:00-04:00,116.28742980957031
925,2022-10-05 00:00:00-04:00,117.13284301757812
926,2022-10-06 00:00:00-04:00,118.47994995117188
927,2022-10-07 00:00:00-04:00,118.40562438964844
928,2022-10-10 00:00:00-04:00,114.9217529296875
929,2022-10-11 00:00:00-04:00,113.99270629882812
930,2022-10-12 00:00:00-04:00,114.69877624511719
931,2022-10-13 00:00:00-04:00,118.3034439086914
932,2022-10-14 00:00:00-04:00,112.6775131225586
933,2022-10-17 00:00:00-04:00,112.98590850830078
934,2022-10-18 00:00:00-04:00,115.8736343383789
935,2022-10-19 00:00:00-04:00,121.5556411743164
936,2022-10-20 00:00:00-04:00,122.97614288330078
937,2022-10-21 00:00:00-04:00,126.16291809082031
938,2022-10-24 00:00:00-04:00,125.84518432617188
939,2022-10-25 00:00:00-04:00,123.35930633544922
940,2022-10-26 00:00:00-04:00,125.5087661743164
941,2022-10-27 00:00:00-04:00,125.57415771484375
942,2022-10-28 00:00:00-04:00,124.93866729736328
943,2022-10-31 00:00:00-04:00,127.58341979980469
944,2022-11-01 00:00:00-04:00,127.38716125488281
945,2022-11-02 00:00:00-04:00,126.71428680419922
946,2022-11-03 00:00:00-04:00,129.32167053222656
947,2022-11-04 00:00:00-04:00,132.91964721679688
948,2022-11-07 00:00:00-05:00,136.3867950439453
949,2022-11-08 00:00:00-05:00,138.55491638183594
950,2022-11-09 00:00:00-05:00,130.48048400878906
951,2022-11-10 00:00:00-05:00,132.99441528320312
952,2022-11-11 00:00:00-05:00,137.480224609375
953,2022-11-14 00:00:00-05:00,136.61106872558594
954,2022-11-15 00:00:00-05:00,137.65777587890625
955,2022-11-16 00:00:00-05:00,134.05978393554688
956,2022-11-17 00:00:00-05:00,135.03170776367188
957,2022-11-18 00:00:00-05:00,131.7888641357422
958,2022-11-21 00:00:00-05:00,130.7047882080078
959,2022-11-22 00:00:00-05:00,134.8728485107422
960,2022-11-23 00:00:00-05:00,133.31214904785156
961,2022-11-25 00:00:00-05:00,133.3028106689453
962,2022-11-28 00:00:00-05:00,127.70491027832031
963,2022-11-29 00:00:00-05:00,132.04116821289062
964,2022-11-30 00:00:00-05:00,132.6392822265625
965,2022-12-01 00:00:00-05:00,131.34027099609375
966,2022-12-02 00:00:00-05:00,129.873046875
967,2022-12-05 00:00:00-05:00,125.35922241210938
968,2022-12-06 00:00:00-05:00,119.42488861083984
969,2022-12-07 00:00:00-05:00,117.9015884399414
970,2022-12-08 00:00:00-05:00,116.4156723022461
971,2022-12-09 00:00:00-05:00,113.70549774169922
972,2022-12-12 00:00:00-05:00,115.93904113769531
973,2022-12-13 00:00:00-05:00,119.11648559570312
974,2022-12-14 00:00:00-05:00,119.08811950683594
975,2022-12-15 00:00:00-05:00,119.75008392333984
976,2022-12-16 00:00:00-05:00,118.93681335449219
977,2022-12-19 00:00:00-05:00,118.70984649658203
978,2022-12-20 00:00:00-05:00,119.6176986694336
979,2022-12-21 00:00:00-05:00,122.94644927978516
980,2022-12-22 00:00:00-05:00,119.43802642822266
981,2022-12-23 00:00:00-05:00,123.51385498046875
982,2022-12-27 00:00:00-05:00,124.90399169921875
983,2022-12-28 00:00:00-05:00,120.47825622558594
984,2022-12-29 00:00:00-05:00,121.64143371582031
985,2022-12-30 00:00:00-05:00,122.48308563232422
986,2023-01-03 00:00:00-05:00,117.68853759765625
987,2023-01-04 00:00:00-05:00,117.60342407226562
988,2023-01-05 00:00:00-05:00,117.6223373413086
989,2023-01-06 00:00:00-05:00,120.5444564819336
990,2023-01-09 00:00:00-05:00,120.80924224853516
991,2023-01-10 00:00:00-05:00,120.67684173583984
992,2023-01-11 00:00:00-05:00,119.9581298828125
993,2023-01-12 00:00:00-05:00,123.362548828125
994,2023-01-13 00:00:00-05:00,123.20552825927734
995,2023-01-17 00:00:00-05:00,123.77653503417969
996,2023-01-18 00:00:00-05:00,122.56788635253906
997,2023-01-19 00:00:00-05:00,124.94709777832031
998,2023-01-20 00:00:00-05:00,126.33659362792969
999,2023-01-23 00:00:00-05:00,127.6974868774414
1000,2023-01-24 00:00:00-05:00,126.34608459472656
1001,2023-01-25 00:00:00-05:00,126.09864807128906
1002,2023-01-26 00:00:00-05:00,129.36293029785156
1003,2023-01-27 00:00:00-05:00,128.15431213378906
1004,2023-01-30 00:00:00-05:00,125.71797943115234
1005,2023-01-31 00:00:00-05:00,125.86074829101562
1006,2023-02-01 00:00:00-05:00,121.1403579711914
1007,2023-02-02 00:00:00-05:00,118.72306823730469
1008,2023-02-03 00:00:00-05:00,118.59935760498047
1009,2023-02-06 00:00:00-05:00,117.8475341796875
1010,2023-02-07 00:00:00-05:00,121.60669708251953
1011,2023-02-08 00:00:00-05:00,122.42513275146484
1012,2023-02-09 00:00:00-05:00,121.01664733886719
1013,2023-02-10 00:00:00-05:00,127.65941619873047
1014,2023-02-13 00:00:00-05:00,126.84095764160156
1015,2023-02-14 00:00:00-05:00,126.69821166992188
1016,2023-02-15 00:00:00-05:00,122.32044982910156
1017,2023-02-16 00:00:00-05:00,119.09423065185547
1018,2023-02-17 00:00:00-05:00,112.69889068603516
1019,2023-02-21 00:00:00-05:00,113.46975708007812
1020,2023-02-22 00:00:00-05:00,111.88995361328125
1021,2023-02-23 00:00:00-05:00,113.75526428222656
1022,2023-02-24 00:00:00-05:00,108.73987579345703
1023,2023-02-27 00:00:00-05:00,109.20619201660156
1024,2023-02-28 00:00:00-05:00,107.55976867675781
1025,2023-03-01 00:00:00-05:00,112.3086929321289
1026,2023-03-02 00:00:00-05:00,114.96391296386719
1027,2023-03-03 00:00:00-05:00,115.88704681396484
1028,2023-03-06 00:00:00-05:00,115.06859588623047
1029,2023-03-07 00:00:00-05:00,112.54661560058594
1030,2023-03-08 00:00:00-05:00,112.13739013671875
1031,2023-03-09 00:00:00-05:00,109.4441146850586
1032,2023-03-10 00:00:00-05:00,106.76034545898438
1033,2023-03-13 00:00:00-04:00,103.82916259765625
1034,2023-03-14 00:00:00-04:00,103.92431640625
1035,2023-03-15 00:00:00-04:00,97.46987915039062
1036,2023-03-16 00:00:00-04:00,100.35133361816406
1037,2023-03-17 00:00:00-04:00,98.689697265625
1038,2023-03-20 00:00:00-04:00,101.28298950195312
1039,2023-03-21 00:00:00-04:00,104.32772827148438
1040,2023-03-22 00:00:00-04:00,101.55194091796875
1041,2023-03-23 00:00:00-04:00,100.63947296142578
1042,2023-03-24 00:00:00-04:00,101.32141876220703
1043,2023-03-27 00:00:00-04:00,104.09721374511719
1044,2023-03-28 00:00:00-04:00,106.0469970703125
1045,2023-03-29 00:00:00-04:00,108.227294921875
1046,2023-03-30 00:00:00-04:00,109.05330657958984
1047,2023-03-31 00:00:00-04:00,110.10022735595703
1048,2023-04-03 00:00:00-04:00,116.6123275756836
1049,2023-04-04 00:00:00-04:00,114.89305114746094
1050,2023-04-05 00:00:00-04:00,115.61341857910156
1051,2023-04-06 00:00:00-04:00,114.6529312133789
1052,2023-04-10 00:00:00-04:00,115.61341857910156
1053,2023-04-11 00:00:00-04:00,116.87165069580078
1054,2023-04-12 00:00:00-04:00,117.47675323486328
1055,2023-04-13 00:00:00-04:00,117.28819274902344
1056,2023-04-14 00:00:00-04:00,117.5976333618164
1057,2023-04-17 00:00:00-04:00,116.79501342773438
1058,2023-04-18 00:00:00-04:00,115.07373809814453
1059,2023-04-19 00:00:00-04:00,114.8803482055664
1060,2023-04-20 00:00:00-04:00,114.35816192626953
1061,2023-04-21 00:00:00-04:00,113.43949890136719
1062,2023-04-24 00:00:00-04:00,115.247802734375
1063,2023-04-25 00:00:00-04:00,112.82061767578125
1064,2023-04-26 00:00:00-04:00,111.84394836425781
1065,2023-04-27 00:00:00-04:00,112.01799011230469
1066,2023-04-28 00:00:00-04:00,115.52823638916016
1067,2023-05-01 00:00:00-04:00,114.72561645507812
1068,2023-05-02 00:00:00-04:00,107.92756652832031
1069,2023-05-03 00:00:00-04:00,107.35702514648438
1070,2023-05-04 00:00:00-04:00,107.63745880126953
1071,2023-05-05 00:00:00-04:00,110.40309143066406
1072,2023-05-08 00:00:00-04:00,110.58683776855469
1073,2023-05-09 00:00:00-04:00,110.01630401611328
1074,2023-05-10 00:00:00-04:00,108.45941162109375
1075,2023-05-11 00:00:00-04:00,106.88319396972656
1076,2023-05-12 00:00:00-04:00,106.77682495117188
1077,2023-05-15 00:00:00-04:00,107.66646575927734
1078,2023-05-16 00:00:00-04:00,104.0788803100586
1079,2023-05-17 00:00:00-04:00,107.14429473876953
1080,2023-05-18 00:00:00-04:00,108.32403564453125
1081,2023-05-19 00:00:00-04:00,110.80924224853516
1082,2023-05-22 00:00:00-04:00,109.8035659790039
1083,2023-05-23 00:00:00-04:00,109.71651458740234
1084,2023-05-24 00:00:00-04:00,109.55213928222656
1085,2023-05-25 00:00:00-04:00,106.75749206542969
1086,2023-05-26 00:00:00-04:00,106.48673248291016
1087,2023-05-30 00:00:00-04:00,105.2199478149414
1088,2023-05-31 00:00:00-04:00,103.7500991821289
1089,2023-06-01 00:00:00-04:00,104.58171844482422
1090,2023-06-02 00:00:00-04:00,108.22733306884766
1091,2023-06-05 00:00:00-04:00,107.96624755859375
1092,2023-06-06 00:00:00-04:00,109.08796691894531
1093,2023-06-07 00:00:00-04:00,112.41447448730469
1094,2023-06-08 00:00:00-04:00,112.3177719116211
1095,2023-06-09 00:00:00-04:00,112.41447448730469
1096,2023-06-12 00:00:00-04:00,110.16134643554688
1097,2023-06-13 00:00:00-04:00,109.00094604492188
1098,2023-06-14 00:00:00-04:00,107.01858520507812
1099,2023-06-15 00:00:00-04:00,108.01459503173828
1100,2023-06-16 00:00:00-04:00,109.66818237304688
1101,2023-06-20 00:00:00-04:00,106.6897964477539
1102,2023-06-21 00:00:00-04:00,107.21199035644531
1103,2023-06-22 00:00:00-04:00,104.67842864990234
1104,2023-06-23 00:00:00-04:00,103.29560852050781
1105,2023-06-26 00:00:00-04:00,106.37068176269531
1106,2023-06-27 00:00:00-04:00,105.38434600830078
1107,2023-06-28 00:00:00-04:00,107.52142333984375
1108,2023-06-29 00:00:00-04:00,109.2717056274414
1109,2023-06-30 00:00:00-04:00,110.66419982910156
1110,2023-07-03 00:00:00-04:00,110.91561126708984
1111,2023-07-05 00:00:00-04:00,110.5191421508789
1112,2023-07-06 00:00:00-04:00,108.54645538330078
1113,2023-07-07 00:00:00-04:00,112.36611938476562
1114,2023-07-10 00:00:00-04:00,111.95030975341797
1115,2023-07-11 00:00:00-04:00,115.65393829345703
1116,2023-07-12 00:00:00-04:00,117.69432830810547
1117,2023-07-13 00:00:00-04:00,118.52594757080078
1118,2023-07-14 00:00:00-04:00,115.7853775024414
1119,2023-07-17 00:00:00-04:00,115.54199981689453
1120,2023-07-18 00:00:00-04:00,119.52384185791016
1121,2023-07-19 00:00:00-04:00,119.20258331298828
1122,2023-07-20 00:00:00-04:00,120.22480773925781
1123,2023-07-21 00:00:00-04:00,121.31520080566406
1124,2023-07-24 00:00:00-04:00,122.81448364257812
1125,2023-07-25 00:00:00-04:00,125.10234069824219
1126,2023-07-26 00:00:00-04:00,125.90068054199219
1127,2023-07-27 00:00:00-04:00,125.35546875
1128,2023-07-28 00:00:00-04:00,127.2441635131836
1129,2023-07-31 00:00:00-04:00,129.02578735351562
1130,2023-08-01 00:00:00-04:00,128.2664031982422
1131,2023-08-02 00:00:00-04:00,126.60163116455078
1132,2023-08-03 00:00:00-04:00,128.2080078125
1133,2023-08-04 00:00:00-04:00,126.36797332763672
1134,2023-08-07 00:00:00-04:00,124.2553482055664
1135,2023-08-08 00:00:00-04:00,125.0049819946289
1136,2023-08-09 00:00:00-04:00,127.35126495361328
1137,2023-08-10 00:00:00-04:00,127.58493041992188
1138,2023-08-11 00:00:00-04:00,128.83108520507812
1139,2023-08-14 00:00:00-04:00,128.00355529785156
1140,2023-08-15 00:00:00-04:00,125.72541809082031
1141,2023-08-16 00:00:00-04:00,125.19970703125
1142,2023-08-17 00:00:00-04:00,126.29981994628906
1143,2023-08-18 00:00:00-04:00,127.17601776123047
1144,2023-08-21 00:00:00-04:00,126.92290496826172
1145,2023-08-22 00:00:00-04:00,125.82279205322266
1146,2023-08-23 00:00:00-04:00,125.4820327758789
1147,2023-08-24 00:00:00-04:00,122.3569107055664
1148,2023-08-25 00:00:00-04:00,123.71989440917969
1149,2023-08-28 00:00:00-04:00,124.0509033203125
1150,2023-08-29 00:00:00-04:00,124.46952819824219
1151,2023-08-30 00:00:00-04:00,124.39163970947266
1152,2023-08-31 00:00:00-04:00,125.21916961669922
1153,2023-09-01 00:00:00-04:00,127.51677703857422
1154,2023-09-05 00:00:00-04:00,129.86305236816406
1155,2023-09-06 00:00:00-04:00,129.6001739501953
1156,2023-09-07 00:00:00-04:00,128.07171630859375
1157,2023-09-08 00:00:00-04:00,129.2205047607422
1158,2023-09-11 00:00:00-04:00,126.72819519042969
1159,2023-09-12 00:00:00-04:00,130.54454040527344
1160,2023-09-13 00:00:00-04:00,129.395751953125
1161,2023-09-14 00:00:00-04:00,131.09947204589844
1162,2023-09-15 00:00:00-04:00,128.68504333496094
1163,2023-09-18 00:00:00-04:00,128.39297485351562
1164,2023-09-19 00:00:00-04:00,125.58911895751953
1165,2023-09-20 00:00:00-04:00,122.1816635131836
1166,2023-09-21 00:00:00-04:00,119.3486099243164
1167,2023-09-22 00:00:00-04:00,119.3778305053711
1168,2023-09-25 00:00:00-04:00,122.32770538330078
1169,2023-09-26 00:00:00-04:00,123.52517700195312
1170,2023-09-27 00:00:00-04:00,126.3777084350586
1171,2023-09-28 00:00:00-04:00,126.04670715332031
1172,2023-09-29 00:00:00-04:00,123.40835571289062
1173,2023-10-02 00:00:00-04:00,120.39032745361328
1174,2023-10-03 00:00:00-04:00,120.95498657226562
1175,2023-10-04 00:00:00-04:00,116.20401763916016
1176,2023-10-05 00:00:00-04:00,115.32781219482422
1177,2023-10-06 00:00:00-04:00,117.4891128540039
1178,2023-10-09 00:00:00-04:00,123.87565612792969
1179,2023-10-10 00:00:00-04:00,123.35967254638672
1180,2023-10-11 00:00:00-04:00,124.00222778320312
1181,2023-10-12 00:00:00-04:00,125.55018615722656
1182,2023-10-13 00:00:00-04:00,130.3011474609375
1183,2023-10-16 00:00:00-04:00,131.29544067382812
1184,2023-10-17 00:00:00-04:00,131.5599365234375
1185,2023-10-18 00:00:00-04:00,132.99014282226562
1186,2023-10-19 00:00:00-04:00,133.4505615234375
1187,2023-10-20 00:00:00-04:00,130.51174926757812
1188,2023-10-23 00:00:00-04:00,128.95419311523438
1189,2023-10-24 00:00:00-04:00,127.28889465332031
1190,2023-10-25 00:00:00-04:00,127.08316802978516
1191,2023-10-26 00:00:00-04:00,125.32969665527344
1192,2023-10-27 00:00:00-04:00,123.41947937011719
1193,2023-10-30 00:00:00-04:00,122.89049530029297
1194,2023-10-31 00:00:00-04:00,123.67417907714844
1195,2023-11-01 00:00:00-04:00,121.68559265136719
1196,2023-11-02 00:00:00-04:00,126.02519989013672
1197,2023-11-03 00:00:00-04:00,125.54521179199219
1198,2023-11-06 00:00:00-05:00,123.84070587158203
1199,2023-11-07 00:00:00-05:00,120.13782501220703
1200,2023-11-08 00:00:00-05:00,118.73700714111328
1201,2023-11-09 00:00:00-05:00,118.8251724243164
1202,2023-11-10 00:00:00-05:00,120.19660186767578
1203,2023-11-13 00:00:00-05:00,120.54925537109375
1204,2023-11-14 00:00:00-05:00,122.56723022460938
1205,2023-11-15 00:00:00-05:00,120.55905151367188
1206,2023-11-16 00:00:00-05:00,118.2374038696289
1207,2023-11-17 00:00:00-05:00,121.47007751464844
1208,2023-11-20 00:00:00-05:00,122.67498779296875
1209,2023-11-21 00:00:00-05:00,121.71498107910156
1210,2023-11-22 00:00:00-05:00,120.65701293945312
1211,2023-11-24 00:00:00-05:00,120.98027801513672
1212,2023-11-27 00:00:00-05:00,120.49048614501953
1213,2023-11-28 00:00:00-05:00,121.11742401123047
1214,2023-11-29 00:00:00-05:00,120.72557830810547
1215,2023-11-30 00:00:00-05:00,120.55905151367188
1216,2023-12-01 00:00:00-05:00,121.07823944091797
1217,2023-12-04 00:00:00-05:00,120.49048614501953
1218,2023-12-05 00:00:00-05:00,119.46189880371094
1219,2023-12-06 00:00:00-05:00,117.3067855834961
1220,2023-12-07 00:00:00-05:00,115.93534851074219
1221,2023-12-08 00:00:00-05:00,116.53290557861328
1222,2023-12-11 00:00:00-05:00,116.76801300048828
1223,2023-12-12 00:00:00-05:00,115.26922607421875
1224,2023-12-13 00:00:00-05:00,116.06270599365234
1225,2023-12-14 00:00:00-05:00,119.6543197631836
1226,2023-12-15 00:00:00-05:00,119.16815948486328
1227,2023-12-18 00:00:00-05:00,120.66632080078125
1228,2023-12-19 00:00:00-05:00,121.56918334960938
1229,2023-12-20 00:00:00-05:00,120.47781372070312
1230,2023-12-21 00:00:00-05:00,120.13055419921875
1231,2023-12-22 00:00:00-05:00,121.31121826171875
1232,2023-12-26 00:00:00-05:00,123.32530975341797
1233,2023-12-27 00:00:00-05:00,123.29553985595703
1234,2023-12-28 00:00:00-05:00,120.37859344482422
1235,2023-12-29 00:00:00-05:00,120.00157165527344
1236,2024-01-02 00:00:00-05:00,120.64647674560547
1237,2024-01-03 00:00:00-05:00,123.9999771118164
1238,2024-01-04 00:00:00-05:00,120.0710220336914
1239,2024-01-05 00:00:00-05:00,119.43604278564453
1240,2024-01-08 00:00:00-05:00,116.84650421142578
1241,2024-01-09 00:00:00-05:00,115.15984344482422
1242,2024-01-10 00:00:00-05:00,114.08831024169922
1243,2024-01-11 00:00:00-05:00,114.0783920288086
1244,2024-01-12 00:00:00-05:00,115.13999938964844
1245,2024-01-16 00:00:00-05:00,112.13999938964844
1246,2024-01-17 00:00:00-05:00,110.62999725341797
1247,2024-01-18 00:00:00-05:00,110.08999633789062
1248,2024-01-19 00:00:00-05:00,110.16999816894531
1249,2024-01-22 00:00:00-05:00,110.63999938964844
1250,2024-01-23 00:00:00-05:00,110.37000274658203
1251,2024-01-24 00:00:00-05:00,112.08999633789062
1252,2024-01-25 00:00:00-05:00,114.8499984741211
1253,2024-01-26 00:00:00-05:00,115.54000091552734
1254,2024-01-29 00:00:00-05:00,114.95999908447266
1255,2024-01-30 00:00:00-05:00,116.77999877929688
1256,2024-01-31 00:00:00-05:00,113.79000091552734
1257,2024-02-01 00:00:00-05:00,112.5999984741211
1258,2024-02-02 00:00:00-05:00,110.8499984741211
