,Date,PPG
0,2019-02-04 00:00:00-05:00,97.37803649902344
1,2019-02-05 00:00:00-05:00,98.06535339355469
2,2019-02-06 00:00:00-05:00,97.23140716552734
3,2019-02-07 00:00:00-05:00,96.08589172363281
4,2019-02-08 00:00:00-05:00,96.09505462646484
5,2019-02-11 00:00:00-05:00,95.9667739868164
6,2019-02-12 00:00:00-05:00,98.61520385742188
7,2019-02-13 00:00:00-05:00,98.87179565429688
8,2019-02-14 00:00:00-05:00,98.29446411132812
9,2019-02-15 00:00:00-05:00,99.98981475830078
10,2019-02-19 00:00:00-05:00,99.6415786743164
11,2019-02-20 00:00:00-05:00,100.5671615600586
12,2019-02-21 00:00:00-05:00,101.36792755126953
13,2019-02-22 00:00:00-05:00,102.57373809814453
14,2019-02-25 00:00:00-05:00,103.38369750976562
15,2019-02-26 00:00:00-05:00,102.60133361816406
16,2019-02-27 00:00:00-05:00,103.24560546875
17,2019-02-28 00:00:00-05:00,103.0615463256836
18,2019-03-01 00:00:00-05:00,103.78868103027344
19,2019-03-04 00:00:00-05:00,102.50006103515625
20,2019-03-05 00:00:00-05:00,101.93861389160156
21,2019-03-06 00:00:00-05:00,101.75453186035156
22,2019-03-07 00:00:00-05:00,101.10099792480469
23,2019-03-08 00:00:00-05:00,100.90770721435547
24,2019-03-11 00:00:00-04:00,102.4448471069336
25,2019-03-12 00:00:00-04:00,102.30679321289062
26,2019-03-13 00:00:00-04:00,102.47247314453125
27,2019-03-14 00:00:00-04:00,100.95372772216797
28,2019-03-15 00:00:00-04:00,101.27589416503906
29,2019-03-18 00:00:00-04:00,102.12269592285156
30,2019-03-19 00:00:00-04:00,102.0766830444336
31,2019-03-20 00:00:00-04:00,102.00303649902344
32,2019-03-21 00:00:00-04:00,103.6782455444336
33,2019-03-22 00:00:00-04:00,98.20162963867188
34,2019-03-25 00:00:00-04:00,98.54218292236328
35,2019-03-26 00:00:00-04:00,99.7387466430664
36,2019-03-27 00:00:00-04:00,101.3219223022461
37,2019-03-28 00:00:00-04:00,102.8314437866211
38,2019-03-29 00:00:00-04:00,103.88995361328125
39,2019-04-01 00:00:00-04:00,105.13253784179688
40,2019-04-02 00:00:00-04:00,105.15093994140625
41,2019-04-03 00:00:00-04:00,105.4638900756836
42,2019-04-04 00:00:00-04:00,105.8504867553711
43,2019-04-05 00:00:00-04:00,105.81365966796875
44,2019-04-08 00:00:00-04:00,105.29821014404297
45,2019-04-09 00:00:00-04:00,105.18773651123047
46,2019-04-10 00:00:00-04:00,105.7584228515625
47,2019-04-11 00:00:00-04:00,105.4086685180664
48,2019-04-12 00:00:00-04:00,106.40274047851562
49,2019-04-15 00:00:00-04:00,107.2035140991211
50,2019-04-16 00:00:00-04:00,108.9799575805664
51,2019-04-17 00:00:00-04:00,108.0503158569336
52,2019-04-18 00:00:00-04:00,110.32382202148438
53,2019-04-22 00:00:00-04:00,107.9122543334961
54,2019-04-23 00:00:00-04:00,108.26202392578125
55,2019-04-24 00:00:00-04:00,107.36000061035156
56,2019-04-25 00:00:00-04:00,106.33830261230469
57,2019-04-26 00:00:00-04:00,108.4369125366211
58,2019-04-29 00:00:00-04:00,107.79258728027344
59,2019-04-30 00:00:00-04:00,108.15158081054688
60,2019-05-01 00:00:00-04:00,106.28307342529297
61,2019-05-02 00:00:00-04:00,107.47044372558594
62,2019-05-03 00:00:00-04:00,108.27122497558594
63,2019-05-06 00:00:00-04:00,107.03783416748047
64,2019-05-07 00:00:00-04:00,105.35343933105469
65,2019-05-08 00:00:00-04:00,104.94844055175781
66,2019-05-09 00:00:00-04:00,104.33839416503906
67,2019-05-10 00:00:00-04:00,103.74681854248047
68,2019-05-13 00:00:00-04:00,102.83173370361328
69,2019-05-14 00:00:00-04:00,103.11824798583984
70,2019-05-15 00:00:00-04:00,103.46952056884766
71,2019-05-16 00:00:00-04:00,104.37535858154297
72,2019-05-17 00:00:00-04:00,103.3123779296875
73,2019-05-20 00:00:00-04:00,99.58733367919922
74,2019-05-21 00:00:00-04:00,100.75201416015625
75,2019-05-22 00:00:00-04:00,100.27133178710938
76,2019-05-23 00:00:00-04:00,98.7369384765625
77,2019-05-24 00:00:00-04:00,99.59658813476562
78,2019-05-28 00:00:00-04:00,99.37472534179688
79,2019-05-29 00:00:00-04:00,99.06971740722656
80,2019-05-30 00:00:00-04:00,99.12516021728516
81,2019-05-31 00:00:00-04:00,96.73116302490234
82,2019-06-03 00:00:00-04:00,99.62429809570312
83,2019-06-04 00:00:00-04:00,103.25691223144531
84,2019-06-05 00:00:00-04:00,103.84848022460938
85,2019-06-06 00:00:00-04:00,104.44007110595703
86,2019-06-07 00:00:00-04:00,105.3643798828125
87,2019-06-10 00:00:00-04:00,105.734130859375
88,2019-06-11 00:00:00-04:00,108.00798034667969
89,2019-06-12 00:00:00-04:00,108.13737487792969
90,2019-06-13 00:00:00-04:00,108.06343841552734
91,2019-06-14 00:00:00-04:00,107.7306900024414
92,2019-06-17 00:00:00-04:00,106.2332763671875
93,2019-06-18 00:00:00-04:00,106.00218963623047
94,2019-06-19 00:00:00-04:00,106.90802001953125
95,2019-06-20 00:00:00-04:00,106.47356414794922
96,2019-06-21 00:00:00-04:00,107.2870101928711
97,2019-06-24 00:00:00-04:00,108.05420684814453
98,2019-06-25 00:00:00-04:00,107.47186279296875
99,2019-06-26 00:00:00-04:00,106.78784942626953
100,2019-06-27 00:00:00-04:00,107.1206283569336
101,2019-06-28 00:00:00-04:00,107.87857055664062
102,2019-07-01 00:00:00-04:00,109.65328979492188
103,2019-07-02 00:00:00-04:00,109.15415954589844
104,2019-07-03 00:00:00-04:00,110.06924438476562
105,2019-07-05 00:00:00-04:00,109.03400421142578
106,2019-07-08 00:00:00-04:00,107.57353973388672
107,2019-07-09 00:00:00-04:00,107.16683197021484
108,2019-07-10 00:00:00-04:00,106.67694854736328
109,2019-07-11 00:00:00-04:00,107.2222900390625
110,2019-07-12 00:00:00-04:00,108.18360900878906
111,2019-07-15 00:00:00-04:00,108.80288696289062
112,2019-07-16 00:00:00-04:00,108.93231964111328
113,2019-07-17 00:00:00-04:00,107.7861328125
114,2019-07-18 00:00:00-04:00,108.14664459228516
115,2019-07-19 00:00:00-04:00,108.6180419921875
116,2019-07-22 00:00:00-04:00,108.10040283203125
117,2019-07-23 00:00:00-04:00,109.95832061767578
118,2019-07-24 00:00:00-04:00,109.16339874267578
119,2019-07-25 00:00:00-04:00,109.20036315917969
120,2019-07-26 00:00:00-04:00,109.0155029296875
121,2019-07-29 00:00:00-04:00,109.46841430664062
122,2019-07-30 00:00:00-04:00,109.95832061767578
123,2019-07-31 00:00:00-04:00,108.50711059570312
124,2019-08-01 00:00:00-04:00,106.91725158691406
125,2019-08-02 00:00:00-04:00,105.53077697753906
126,2019-08-05 00:00:00-04:00,102.56366729736328
127,2019-08-06 00:00:00-04:00,102.58216857910156
128,2019-08-07 00:00:00-04:00,104.31989288330078
129,2019-08-08 00:00:00-04:00,107.8231201171875
130,2019-08-09 00:00:00-04:00,107.07111358642578
131,2019-08-12 00:00:00-04:00,104.49019622802734
132,2019-08-13 00:00:00-04:00,104.99153137207031
133,2019-08-14 00:00:00-04:00,102.32704162597656
134,2019-08-15 00:00:00-04:00,101.77001190185547
135,2019-08-16 00:00:00-04:00,102.791259765625
136,2019-08-19 00:00:00-04:00,103.62680053710938
137,2019-08-20 00:00:00-04:00,102.40131378173828
138,2019-08-21 00:00:00-04:00,102.77267456054688
139,2019-08-22 00:00:00-04:00,102.21564483642578
140,2019-08-23 00:00:00-04:00,98.91058349609375
141,2019-08-26 00:00:00-04:00,99.49547576904297
142,2019-08-27 00:00:00-04:00,99.71826171875
143,2019-08-28 00:00:00-04:00,101.22227478027344
144,2019-08-29 00:00:00-04:00,102.25276947021484
145,2019-08-30 00:00:00-04:00,102.85623168945312
146,2019-09-03 00:00:00-04:00,102.52201080322266
147,2019-09-04 00:00:00-04:00,103.53395080566406
148,2019-09-05 00:00:00-04:00,105.2236328125
149,2019-09-06 00:00:00-04:00,107.48889923095703
150,2019-09-09 00:00:00-04:00,108.1666259765625
151,2019-09-10 00:00:00-04:00,108.87220764160156
152,2019-09-11 00:00:00-04:00,109.25282287597656
153,2019-09-12 00:00:00-04:00,109.74488067626953
154,2019-09-13 00:00:00-04:00,110.83109283447266
155,2019-09-16 00:00:00-04:00,107.09896087646484
156,2019-09-17 00:00:00-04:00,108.81648254394531
157,2019-09-18 00:00:00-04:00,110.87751007080078
158,2019-09-19 00:00:00-04:00,112.04729461669922
159,2019-09-20 00:00:00-04:00,110.71969604492188
160,2019-09-23 00:00:00-04:00,109.87484741210938
161,2019-09-24 00:00:00-04:00,107.90666198730469
162,2019-09-25 00:00:00-04:00,108.3058853149414
163,2019-09-26 00:00:00-04:00,108.3058853149414
164,2019-09-27 00:00:00-04:00,109.75415802001953
165,2019-09-30 00:00:00-04:00,110.02339935302734
166,2019-10-01 00:00:00-04:00,108.5008544921875
167,2019-10-02 00:00:00-04:00,106.21699523925781
168,2019-10-03 00:00:00-04:00,106.39338684082031
169,2019-10-04 00:00:00-04:00,108.26874542236328
170,2019-10-07 00:00:00-04:00,107.42391967773438
171,2019-10-08 00:00:00-04:00,104.30451965332031
172,2019-10-09 00:00:00-04:00,106.37481689453125
173,2019-10-10 00:00:00-04:00,107.37747955322266
174,2019-10-11 00:00:00-04:00,110.63615417480469
175,2019-10-14 00:00:00-04:00,108.81648254394531
176,2019-10-15 00:00:00-04:00,109.74488067626953
177,2019-10-16 00:00:00-04:00,110.44115447998047
178,2019-10-17 00:00:00-04:00,112.5578842163086
179,2019-10-18 00:00:00-04:00,115.33378601074219
180,2019-10-21 00:00:00-04:00,115.75157165527344
181,2019-10-22 00:00:00-04:00,116.29930877685547
182,2019-10-23 00:00:00-04:00,115.55658721923828
183,2019-10-24 00:00:00-04:00,114.73033905029297
184,2019-10-25 00:00:00-04:00,115.15739440917969
185,2019-10-28 00:00:00-04:00,114.85102081298828
186,2019-10-29 00:00:00-04:00,116.0950698852539
187,2019-10-30 00:00:00-04:00,116.95845794677734
188,2019-10-31 00:00:00-04:00,116.1600341796875
189,2019-11-01 00:00:00-04:00,116.45714569091797
190,2019-11-04 00:00:00-05:00,118.9173583984375
191,2019-11-05 00:00:00-05:00,119.66007995605469
192,2019-11-06 00:00:00-05:00,120.47708892822266
193,2019-11-07 00:00:00-05:00,120.53276824951172
194,2019-11-08 00:00:00-05:00,120.1599349975586
195,2019-11-11 00:00:00-05:00,120.4208984375
196,2019-11-12 00:00:00-05:00,121.39956665039062
197,2019-11-13 00:00:00-05:00,121.46480560302734
198,2019-11-14 00:00:00-05:00,120.93351745605469
199,2019-11-15 00:00:00-05:00,120.70052337646484
200,2019-11-18 00:00:00-05:00,120.1599349975586
201,2019-11-19 00:00:00-05:00,120.03874969482422
202,2019-11-20 00:00:00-05:00,117.90438079833984
203,2019-11-21 00:00:00-05:00,117.14009094238281
204,2019-11-22 00:00:00-05:00,116.8884506225586
205,2019-11-25 00:00:00-05:00,119.10671997070312
206,2019-11-26 00:00:00-05:00,120.8962631225586
207,2019-11-27 00:00:00-05:00,120.41159057617188
208,2019-11-29 00:00:00-05:00,120.08537292480469
209,2019-12-02 00:00:00-05:00,119.76848602294922
210,2019-12-03 00:00:00-05:00,119.26516723632812
211,2019-12-04 00:00:00-05:00,120.32770538330078
212,2019-12-05 00:00:00-05:00,122.21977233886719
213,2019-12-06 00:00:00-05:00,123.5339584350586
214,2019-12-09 00:00:00-05:00,123.94403839111328
215,2019-12-10 00:00:00-05:00,123.46871185302734
216,2019-12-11 00:00:00-05:00,123.31959533691406
217,2019-12-12 00:00:00-05:00,124.67105865478516
218,2019-12-13 00:00:00-05:00,123.97200775146484
219,2019-12-16 00:00:00-05:00,124.19572448730469
220,2019-12-17 00:00:00-05:00,124.05592346191406
221,2019-12-18 00:00:00-05:00,122.70440673828125
222,2019-12-19 00:00:00-05:00,123.4220962524414
223,2019-12-20 00:00:00-05:00,123.46871185302734
224,2019-12-23 00:00:00-05:00,123.97200775146484
225,2019-12-24 00:00:00-05:00,124.46599578857422
226,2019-12-26 00:00:00-05:00,124.2982406616211
227,2019-12-27 00:00:00-05:00,124.25161743164062
228,2019-12-30 00:00:00-05:00,123.88813781738281
229,2019-12-31 00:00:00-05:00,124.4194107055664
230,2020-01-02 00:00:00-05:00,122.6578369140625
231,2020-01-03 00:00:00-05:00,120.87763214111328
232,2020-01-06 00:00:00-05:00,120.31837463378906
233,2020-01-07 00:00:00-05:00,119.37701416015625
234,2020-01-08 00:00:00-05:00,119.6845932006836
235,2020-01-09 00:00:00-05:00,119.91759490966797
236,2020-01-10 00:00:00-05:00,119.3863296508789
237,2020-01-13 00:00:00-05:00,120.4395523071289
238,2020-01-14 00:00:00-05:00,121.1012954711914
239,2020-01-15 00:00:00-05:00,121.85629272460938
240,2020-01-16 00:00:00-05:00,118.75254821777344
241,2020-01-17 00:00:00-05:00,119.7591552734375
242,2020-01-21 00:00:00-05:00,117.33582305908203
243,2020-01-22 00:00:00-05:00,117.58747100830078
244,2020-01-23 00:00:00-05:00,117.6806869506836
245,2020-01-24 00:00:00-05:00,117.26127624511719
246,2020-01-27 00:00:00-05:00,114.60491943359375
247,2020-01-28 00:00:00-05:00,115.60220336914062
248,2020-01-29 00:00:00-05:00,115.03366088867188
249,2020-01-30 00:00:00-05:00,114.7447280883789
250,2020-01-31 00:00:00-05:00,111.6969223022461
251,2020-02-03 00:00:00-05:00,113.09498596191406
252,2020-02-04 00:00:00-05:00,114.20413970947266
253,2020-02-05 00:00:00-05:00,116.37580871582031
254,2020-02-06 00:00:00-05:00,115.90978240966797
255,2020-02-07 00:00:00-05:00,114.27869415283203
256,2020-02-10 00:00:00-05:00,112.67559051513672
257,2020-02-11 00:00:00-05:00,113.66354370117188
258,2020-02-12 00:00:00-05:00,114.04570007324219
259,2020-02-13 00:00:00-05:00,112.27479553222656
260,2020-02-14 00:00:00-05:00,111.9858627319336
261,2020-02-18 00:00:00-05:00,111.22156524658203
262,2020-02-19 00:00:00-05:00,111.39865112304688
263,2020-02-20 00:00:00-05:00,111.72628784179688
264,2020-02-21 00:00:00-05:00,111.30506896972656
265,2020-02-24 00:00:00-05:00,107.89785766601562
266,2020-02-25 00:00:00-05:00,102.61856079101562
267,2020-02-26 00:00:00-05:00,102.11309814453125
268,2020-02-27 00:00:00-05:00,96.96485137939453
269,2020-02-28 00:00:00-05:00,97.76984405517578
270,2020-03-02 00:00:00-05:00,98.5748519897461
271,2020-03-03 00:00:00-05:00,97.71368408203125
272,2020-03-04 00:00:00-05:00,101.05538177490234
273,2020-03-05 00:00:00-05:00,96.08496856689453
274,2020-03-06 00:00:00-05:00,94.96172332763672
275,2020-03-09 00:00:00-04:00,91.18010711669922
276,2020-03-10 00:00:00-04:00,95.45783996582031
277,2020-03-11 00:00:00-04:00,90.76824951171875
278,2020-03-12 00:00:00-04:00,84.1504135131836
279,2020-03-13 00:00:00-04:00,88.16603088378906
280,2020-03-16 00:00:00-04:00,77.14879608154297
281,2020-03-17 00:00:00-04:00,77.33601379394531
282,2020-03-18 00:00:00-04:00,68.2563705444336
283,2020-03-19 00:00:00-04:00,71.66356658935547
284,2020-03-20 00:00:00-04:00,74.62146759033203
285,2020-03-23 00:00:00-04:00,67.86323547363281
286,2020-03-24 00:00:00-04:00,76.8024673461914
287,2020-03-25 00:00:00-04:00,80.22837829589844
288,2020-03-26 00:00:00-04:00,84.01935577392578
289,2020-03-27 00:00:00-04:00,79.56379699707031
290,2020-03-30 00:00:00-04:00,80.4249496459961
291,2020-03-31 00:00:00-04:00,78.25331115722656
292,2020-04-01 00:00:00-04:00,74.78060150146484
293,2020-04-02 00:00:00-04:00,75.56688690185547
294,2020-04-03 00:00:00-04:00,75.28607177734375
295,2020-04-06 00:00:00-04:00,81.08954620361328
296,2020-04-07 00:00:00-04:00,85.26429748535156
297,2020-04-08 00:00:00-04:00,87.3797607421875
298,2020-04-09 00:00:00-04:00,90.95545196533203
299,2020-04-13 00:00:00-04:00,87.68865966796875
300,2020-04-14 00:00:00-04:00,86.85557556152344
301,2020-04-15 00:00:00-04:00,82.82122802734375
302,2020-04-16 00:00:00-04:00,83.21437072753906
303,2020-04-17 00:00:00-04:00,87.34231567382812
304,2020-04-20 00:00:00-04:00,85.27366638183594
305,2020-04-21 00:00:00-04:00,82.38129425048828
306,2020-04-22 00:00:00-04:00,84.30953216552734
307,2020-04-23 00:00:00-04:00,84.73075866699219
308,2020-04-24 00:00:00-04:00,86.80876922607422
309,2020-04-27 00:00:00-04:00,89.86029052734375
310,2020-04-28 00:00:00-04:00,85.63871765136719
311,2020-04-29 00:00:00-04:00,89.74795532226562
312,2020-04-30 00:00:00-04:00,85.02094268798828
313,2020-05-01 00:00:00-04:00,82.37193298339844
314,2020-05-04 00:00:00-04:00,81.2767562866211
315,2020-05-05 00:00:00-04:00,82.62464904785156
316,2020-05-06 00:00:00-04:00,83.12077331542969
317,2020-05-07 00:00:00-04:00,84.58100128173828
318,2020-05-08 00:00:00-04:00,86.58607482910156
319,2020-05-11 00:00:00-04:00,85.1175537109375
320,2020-05-12 00:00:00-04:00,82.49115753173828
321,2020-05-13 00:00:00-04:00,79.29997253417969
322,2020-05-14 00:00:00-04:00,80.92852020263672
323,2020-05-15 00:00:00-04:00,81.82279205322266
324,2020-05-18 00:00:00-04:00,86.46370697021484
325,2020-05-19 00:00:00-04:00,87.75335693359375
326,2020-05-20 00:00:00-04:00,90.36093139648438
327,2020-05-21 00:00:00-04:00,89.51370239257812
328,2020-05-22 00:00:00-04:00,90.53977966308594
329,2020-05-26 00:00:00-04:00,94.13575744628906
330,2020-05-27 00:00:00-04:00,96.34796905517578
331,2020-05-28 00:00:00-04:00,96.6209487915039
332,2020-05-29 00:00:00-04:00,95.70783996582031
333,2020-06-01 00:00:00-04:00,97.30814361572266
334,2020-06-02 00:00:00-04:00,101.21476745605469
335,2020-06-03 00:00:00-04:00,105.13082885742188
336,2020-06-04 00:00:00-04:00,104.60365295410156
337,2020-06-05 00:00:00-04:00,107.26769256591797
338,2020-06-08 00:00:00-04:00,106.74995422363281
339,2020-06-09 00:00:00-04:00,104.88607025146484
340,2020-06-10 00:00:00-04:00,102.64563751220703
341,2020-06-11 00:00:00-04:00,93.72158813476562
342,2020-06-12 00:00:00-04:00,95.67018127441406
343,2020-06-15 00:00:00-04:00,97.14812469482422
344,2020-06-16 00:00:00-04:00,98.61664581298828
345,2020-06-17 00:00:00-04:00,98.72017669677734
346,2020-06-18 00:00:00-04:00,98.29657745361328
347,2020-06-19 00:00:00-04:00,97.63761138916016
348,2020-06-22 00:00:00-04:00,97.5905532836914
349,2020-06-23 00:00:00-04:00,97.60939025878906
350,2020-06-24 00:00:00-04:00,95.90553283691406
351,2020-06-25 00:00:00-04:00,96.74333190917969
352,2020-06-26 00:00:00-04:00,96.1502685546875
353,2020-06-29 00:00:00-04:00,97.84471130371094
354,2020-06-30 00:00:00-04:00,99.84039306640625
355,2020-07-01 00:00:00-04:00,100.1133804321289
356,2020-07-02 00:00:00-04:00,102.67387390136719
357,2020-07-06 00:00:00-04:00,103.4363784790039
358,2020-07-07 00:00:00-04:00,102.06200408935547
359,2020-07-08 00:00:00-04:00,100.2263412475586
360,2020-07-09 00:00:00-04:00,98.91786193847656
361,2020-07-10 00:00:00-04:00,100.76292419433594
362,2020-07-13 00:00:00-04:00,102.9656982421875
363,2020-07-14 00:00:00-04:00,105.16848754882812
364,2020-07-15 00:00:00-04:00,108.83976745605469
365,2020-07-16 00:00:00-04:00,108.50089263916016
366,2020-07-17 00:00:00-04:00,105.319091796875
367,2020-07-20 00:00:00-04:00,102.9751205444336
368,2020-07-21 00:00:00-04:00,103.69996643066406
369,2020-07-22 00:00:00-04:00,105.13082885742188
370,2020-07-23 00:00:00-04:00,104.33067321777344
371,2020-07-24 00:00:00-04:00,104.07649230957031
372,2020-07-27 00:00:00-04:00,103.765869140625
373,2020-07-28 00:00:00-04:00,102.21260070800781
374,2020-07-29 00:00:00-04:00,103.935302734375
375,2020-07-30 00:00:00-04:00,101.85489654541016
376,2020-07-31 00:00:00-04:00,101.33715057373047
377,2020-08-03 00:00:00-04:00,101.08300018310547
378,2020-08-04 00:00:00-04:00,101.46894073486328
379,2020-08-05 00:00:00-04:00,105.11200714111328
380,2020-08-06 00:00:00-04:00,104.90492248535156
381,2020-08-07 00:00:00-04:00,107.56300354003906
382,2020-08-10 00:00:00-04:00,109.48324584960938
383,2020-08-11 00:00:00-04:00,114.3548583984375
384,2020-08-12 00:00:00-04:00,114.4494400024414
385,2020-08-13 00:00:00-04:00,112.38729095458984
386,2020-08-14 00:00:00-04:00,112.54812622070312
387,2020-08-17 00:00:00-04:00,112.49136352539062
388,2020-08-18 00:00:00-04:00,112.27379608154297
389,2020-08-19 00:00:00-04:00,112.22650146484375
390,2020-08-20 00:00:00-04:00,111.84810638427734
391,2020-08-21 00:00:00-04:00,111.83865356445312
392,2020-08-24 00:00:00-04:00,114.53458404541016
393,2020-08-25 00:00:00-04:00,113.34268951416016
394,2020-08-26 00:00:00-04:00,113.4656753540039
395,2020-08-27 00:00:00-04:00,114.26026916503906
396,2020-08-28 00:00:00-04:00,115.51836395263672
397,2020-08-31 00:00:00-04:00,113.8913345336914
398,2020-09-01 00:00:00-04:00,117.29674530029297
399,2020-09-02 00:00:00-04:00,119.1697006225586
400,2020-09-03 00:00:00-04:00,116.15214538574219
401,2020-09-04 00:00:00-04:00,115.98186492919922
402,2020-09-08 00:00:00-04:00,114.4494400024414
403,2020-09-09 00:00:00-04:00,118.56428527832031
404,2020-09-10 00:00:00-04:00,118.94268035888672
405,2020-09-11 00:00:00-04:00,120.22917175292969
406,2020-09-14 00:00:00-04:00,123.17103576660156
407,2020-09-15 00:00:00-04:00,122.89669799804688
408,2020-09-16 00:00:00-04:00,122.06427764892578
409,2020-09-17 00:00:00-04:00,122.2629165649414
410,2020-09-18 00:00:00-04:00,118.97106170654297
411,2020-09-21 00:00:00-04:00,113.5886459350586
412,2020-09-22 00:00:00-04:00,114.28865051269531
413,2020-09-23 00:00:00-04:00,111.92378234863281
414,2020-09-24 00:00:00-04:00,112.51971435546875
415,2020-09-25 00:00:00-04:00,113.74945831298828
416,2020-09-28 00:00:00-04:00,115.15888977050781
417,2020-09-29 00:00:00-04:00,113.82512664794922
418,2020-09-30 00:00:00-04:00,115.48053741455078
419,2020-10-01 00:00:00-04:00,115.19674682617188
420,2020-10-02 00:00:00-04:00,116.60619354248047
421,2020-10-05 00:00:00-04:00,119.11294555664062
422,2020-10-06 00:00:00-04:00,117.81702423095703
423,2020-10-07 00:00:00-04:00,121.96969604492188
424,2020-10-08 00:00:00-04:00,127.69261932373047
425,2020-10-09 00:00:00-04:00,128.53451538085938
426,2020-10-12 00:00:00-04:00,128.69534301757812
427,2020-10-13 00:00:00-04:00,126.34939575195312
428,2020-10-14 00:00:00-04:00,127.3142318725586
429,2020-10-15 00:00:00-04:00,129.3480224609375
430,2020-10-16 00:00:00-04:00,129.7453155517578
431,2020-10-19 00:00:00-04:00,127.05888366699219
432,2020-10-20 00:00:00-04:00,127.35209655761719
433,2020-10-21 00:00:00-04:00,126.78453063964844
434,2020-10-22 00:00:00-04:00,126.47237396240234
435,2020-10-23 00:00:00-04:00,127.01156616210938
436,2020-10-26 00:00:00-04:00,124.23049926757812
437,2020-10-27 00:00:00-04:00,120.50347137451172
438,2020-10-28 00:00:00-04:00,118.44132995605469
439,2020-10-29 00:00:00-04:00,121.17510986328125
440,2020-10-30 00:00:00-04:00,122.70751953125
441,2020-11-02 00:00:00-05:00,127.87237548828125
442,2020-11-03 00:00:00-05:00,129.4615478515625
443,2020-11-04 00:00:00-05:00,125.63046264648438
444,2020-11-05 00:00:00-05:00,130.7858428955078
445,2020-11-06 00:00:00-05:00,131.2588348388672
446,2020-11-09 00:00:00-05:00,134.7249755859375
447,2020-11-10 00:00:00-05:00,135.62716674804688
448,2020-11-11 00:00:00-05:00,135.4657440185547
449,2020-11-12 00:00:00-05:00,132.8257293701172
450,2020-11-13 00:00:00-05:00,135.62716674804688
451,2020-11-16 00:00:00-05:00,137.0041046142578
452,2020-11-17 00:00:00-05:00,136.05450439453125
453,2020-11-18 00:00:00-05:00,135.60818481445312
454,2020-11-19 00:00:00-05:00,136.00701904296875
455,2020-11-20 00:00:00-05:00,135.8360595703125
456,2020-11-23 00:00:00-05:00,137.48841857910156
457,2020-11-24 00:00:00-05:00,140.47976684570312
458,2020-11-25 00:00:00-05:00,139.30226135253906
459,2020-11-27 00:00:00-05:00,140.3373565673828
460,2020-11-30 00:00:00-05:00,139.37823486328125
461,2020-12-01 00:00:00-05:00,141.60040283203125
462,2020-12-02 00:00:00-05:00,139.7011260986328
463,2020-12-03 00:00:00-05:00,138.10572814941406
464,2020-12-04 00:00:00-05:00,139.5301513671875
465,2020-12-07 00:00:00-05:00,137.6024169921875
466,2020-12-08 00:00:00-05:00,137.58343505859375
467,2020-12-09 00:00:00-05:00,138.06771850585938
468,2020-12-10 00:00:00-05:00,136.11148071289062
469,2020-12-11 00:00:00-05:00,135.7316436767578
470,2020-12-14 00:00:00-05:00,134.6205291748047
471,2020-12-15 00:00:00-05:00,136.8616943359375
472,2020-12-16 00:00:00-05:00,135.69363403320312
473,2020-12-17 00:00:00-05:00,137.02316284179688
474,2020-12-18 00:00:00-05:00,138.10572814941406
475,2020-12-21 00:00:00-05:00,138.74197387695312
476,2020-12-22 00:00:00-05:00,137.4124755859375
477,2020-12-23 00:00:00-05:00,136.624267578125
478,2020-12-24 00:00:00-05:00,137.69735717773438
479,2020-12-28 00:00:00-05:00,135.95953369140625
480,2020-12-29 00:00:00-05:00,135.703125
481,2020-12-30 00:00:00-05:00,136.00701904296875
482,2020-12-31 00:00:00-05:00,136.95663452148438
483,2021-01-04 00:00:00-05:00,134.19317626953125
484,2021-01-05 00:00:00-05:00,137.0706024169922
485,2021-01-06 00:00:00-05:00,141.42945861816406
486,2021-01-07 00:00:00-05:00,143.23374938964844
487,2021-01-08 00:00:00-05:00,140.83116149902344
488,2021-01-11 00:00:00-05:00,141.92323303222656
489,2021-01-12 00:00:00-05:00,143.6610870361328
490,2021-01-13 00:00:00-05:00,144.3542938232422
491,2021-01-14 00:00:00-05:00,144.107421875
492,2021-01-15 00:00:00-05:00,140.58425903320312
493,2021-01-19 00:00:00-05:00,137.73532104492188
494,2021-01-20 00:00:00-05:00,137.27001953125
495,2021-01-21 00:00:00-05:00,136.30142211914062
496,2021-01-22 00:00:00-05:00,130.8789825439453
497,2021-01-25 00:00:00-05:00,133.51898193359375
498,2021-01-26 00:00:00-05:00,133.9083251953125
499,2021-01-27 00:00:00-05:00,132.90170288085938
500,2021-01-28 00:00:00-05:00,132.1324920654297
501,2021-01-29 00:00:00-05:00,127.92560577392578
502,2021-02-01 00:00:00-05:00,131.60069274902344
503,2021-02-02 00:00:00-05:00,133.45248413085938
504,2021-02-03 00:00:00-05:00,132.86370849609375
505,2021-02-04 00:00:00-05:00,132.2464599609375
506,2021-02-05 00:00:00-05:00,133.0536651611328
507,2021-02-08 00:00:00-05:00,133.15809631347656
508,2021-02-09 00:00:00-05:00,130.3756561279297
509,2021-02-10 00:00:00-05:00,131.0119171142578
510,2021-02-11 00:00:00-05:00,131.1068878173828
511,2021-02-12 00:00:00-05:00,131.5721893310547
512,2021-02-16 00:00:00-05:00,130.43263244628906
513,2021-02-17 00:00:00-05:00,129.72042846679688
514,2021-02-18 00:00:00-05:00,129.93968200683594
515,2021-02-19 00:00:00-05:00,130.302001953125
516,2021-02-22 00:00:00-05:00,128.18545532226562
517,2021-02-23 00:00:00-05:00,128.68118286132812
518,2021-02-24 00:00:00-05:00,130.51174926757812
519,2021-02-25 00:00:00-05:00,128.68118286132812
520,2021-02-26 00:00:00-05:00,128.53822326660156
521,2021-03-01 00:00:00-05:00,131.42703247070312
522,2021-03-02 00:00:00-05:00,134.21096801757812
523,2021-03-03 00:00:00-05:00,133.11453247070312
524,2021-03-04 00:00:00-05:00,131.40797424316406
525,2021-03-05 00:00:00-05:00,135.96524047851562
526,2021-03-08 00:00:00-05:00,139.29261779785156
527,2021-03-09 00:00:00-05:00,139.2640380859375
528,2021-03-10 00:00:00-05:00,141.5617218017578
529,2021-03-11 00:00:00-05:00,139.2640380859375
530,2021-03-12 00:00:00-05:00,138.52989196777344
531,2021-03-15 00:00:00-04:00,138.29151916503906
532,2021-03-16 00:00:00-04:00,138.05316162109375
533,2021-03-17 00:00:00-04:00,139.73118591308594
534,2021-03-18 00:00:00-04:00,142.82020568847656
535,2021-03-19 00:00:00-04:00,140.55111694335938
536,2021-03-22 00:00:00-04:00,141.046875
537,2021-03-23 00:00:00-04:00,140.59877014160156
538,2021-03-24 00:00:00-04:00,141.25662231445312
539,2021-03-25 00:00:00-04:00,145.24188232421875
540,2021-03-26 00:00:00-04:00,147.6063232421875
541,2021-03-29 00:00:00-04:00,148.27371215820312
542,2021-03-30 00:00:00-04:00,145.67086791992188
543,2021-03-31 00:00:00-04:00,143.25875854492188
544,2021-04-01 00:00:00-04:00,144.87957763671875
545,2021-04-05 00:00:00-04:00,146.405029296875
546,2021-04-06 00:00:00-04:00,146.41458129882812
547,2021-04-07 00:00:00-04:00,141.0754852294922
548,2021-04-08 00:00:00-04:00,141.15174865722656
549,2021-04-09 00:00:00-04:00,143.458984375
550,2021-04-12 00:00:00-04:00,144.3361358642578
551,2021-04-13 00:00:00-04:00,144.0310516357422
552,2021-04-14 00:00:00-04:00,143.84034729003906
553,2021-04-15 00:00:00-04:00,146.79592895507812
554,2021-04-16 00:00:00-04:00,159.60971069335938
555,2021-04-19 00:00:00-04:00,160.91587829589844
556,2021-04-20 00:00:00-04:00,161.12562561035156
557,2021-04-21 00:00:00-04:00,165.4827117919922
558,2021-04-22 00:00:00-04:00,163.5663604736328
559,2021-04-23 00:00:00-04:00,166.51235961914062
560,2021-04-26 00:00:00-04:00,165.06317138671875
561,2021-04-27 00:00:00-04:00,164.20510864257812
562,2021-04-28 00:00:00-04:00,164.5102081298828
563,2021-04-29 00:00:00-04:00,165.1204071044922
564,2021-04-30 00:00:00-04:00,163.26124572753906
565,2021-05-03 00:00:00-04:00,164.94874572753906
566,2021-05-04 00:00:00-04:00,170.42132568359375
567,2021-05-05 00:00:00-04:00,170.6977996826172
568,2021-05-06 00:00:00-04:00,171.69883728027344
569,2021-05-07 00:00:00-04:00,171.6415252685547
570,2021-05-10 00:00:00-04:00,171.43115234375
571,2021-05-11 00:00:00-04:00,171.1633758544922
572,2021-05-12 00:00:00-04:00,166.2481231689453
573,2021-05-13 00:00:00-04:00,170.2548828125
574,2021-05-14 00:00:00-04:00,171.2685546875
575,2021-05-17 00:00:00-04:00,172.0909881591797
576,2021-05-18 00:00:00-04:00,169.4133758544922
577,2021-05-19 00:00:00-04:00,168.6387939453125
578,2021-05-20 00:00:00-04:00,169.7194061279297
579,2021-05-21 00:00:00-04:00,170.64697265625
580,2021-05-24 00:00:00-04:00,171.71798706054688
581,2021-05-25 00:00:00-04:00,171.2685546875
582,2021-05-26 00:00:00-04:00,170.93385314941406
583,2021-05-27 00:00:00-04:00,172.8846435546875
584,2021-05-28 00:00:00-04:00,171.8614501953125
585,2021-06-01 00:00:00-04:00,172.84640502929688
586,2021-06-02 00:00:00-04:00,172.45431518554688
587,2021-06-03 00:00:00-04:00,173.075927734375
588,2021-06-04 00:00:00-04:00,174.35733032226562
589,2021-06-07 00:00:00-04:00,172.11009216308594
590,2021-06-08 00:00:00-04:00,171.23988342285156
591,2021-06-09 00:00:00-04:00,169.3656005859375
592,2021-06-10 00:00:00-04:00,169.63333129882812
593,2021-06-11 00:00:00-04:00,169.76719665527344
594,2021-06-14 00:00:00-04:00,167.711181640625
595,2021-06-15 00:00:00-04:00,168.6387939453125
596,2021-06-16 00:00:00-04:00,167.080078125
597,2021-06-17 00:00:00-04:00,163.6757354736328
598,2021-06-18 00:00:00-04:00,160.76866149902344
599,2021-06-21 00:00:00-04:00,164.134765625
600,2021-06-22 00:00:00-04:00,164.01043701171875
601,2021-06-23 00:00:00-04:00,162.27001953125
602,2021-06-24 00:00:00-04:00,162.10745239257812
603,2021-06-25 00:00:00-04:00,159.8984832763672
604,2021-06-28 00:00:00-04:00,161.07467651367188
605,2021-06-29 00:00:00-04:00,161.18943786621094
606,2021-06-30 00:00:00-04:00,162.3465118408203
607,2021-07-01 00:00:00-04:00,162.556884765625
608,2021-07-02 00:00:00-04:00,163.1975860595703
609,2021-07-06 00:00:00-04:00,161.61978149414062
610,2021-07-07 00:00:00-04:00,164.76588439941406
611,2021-07-08 00:00:00-04:00,161.58151245117188
612,2021-07-09 00:00:00-04:00,163.91481018066406
613,2021-07-12 00:00:00-04:00,164.55551147460938
614,2021-07-13 00:00:00-04:00,162.5091094970703
615,2021-07-14 00:00:00-04:00,162.6525115966797
616,2021-07-15 00:00:00-04:00,163.98175048828125
617,2021-07-16 00:00:00-04:00,162.75770568847656
618,2021-07-19 00:00:00-04:00,158.50228881835938
619,2021-07-20 00:00:00-04:00,151.55978393554688
620,2021-07-21 00:00:00-04:00,152.78379821777344
621,2021-07-22 00:00:00-04:00,153.4818878173828
622,2021-07-23 00:00:00-04:00,155.7960662841797
623,2021-07-26 00:00:00-04:00,157.7277069091797
624,2021-07-27 00:00:00-04:00,157.9189910888672
625,2021-07-28 00:00:00-04:00,156.20724487304688
626,2021-07-29 00:00:00-04:00,155.7386932373047
627,2021-07-30 00:00:00-04:00,156.36981201171875
628,2021-08-02 00:00:00-04:00,156.15943908691406
629,2021-08-03 00:00:00-04:00,158.38755798339844
630,2021-08-04 00:00:00-04:00,156.64712524414062
631,2021-08-05 00:00:00-04:00,155.82472229003906
632,2021-08-06 00:00:00-04:00,157.04876708984375
633,2021-08-09 00:00:00-04:00,157.68218994140625
634,2021-08-10 00:00:00-04:00,160.61895751953125
635,2021-08-11 00:00:00-04:00,163.33494567871094
636,2021-08-12 00:00:00-04:00,163.52691650390625
637,2021-08-13 00:00:00-04:00,162.9414520263672
638,2021-08-16 00:00:00-04:00,162.56716918945312
639,2021-08-17 00:00:00-04:00,159.8799591064453
640,2021-08-18 00:00:00-04:00,157.8837127685547
641,2021-08-19 00:00:00-04:00,154.6494598388672
642,2021-08-20 00:00:00-04:00,154.63026428222656
643,2021-08-23 00:00:00-04:00,155.8203125
644,2021-08-24 00:00:00-04:00,156.3194122314453
645,2021-08-25 00:00:00-04:00,156.80885314941406
646,2021-08-26 00:00:00-04:00,154.65907287597656
647,2021-08-27 00:00:00-04:00,155.32127380371094
648,2021-08-30 00:00:00-04:00,155.19651794433594
649,2021-08-31 00:00:00-04:00,153.12351989746094
650,2021-09-01 00:00:00-04:00,151.39601135253906
651,2021-09-02 00:00:00-04:00,152.2405548095703
652,2021-09-03 00:00:00-04:00,149.3902130126953
653,2021-09-07 00:00:00-04:00,144.342041015625
654,2021-09-08 00:00:00-04:00,144.9370880126953
655,2021-09-09 00:00:00-04:00,148.33448791503906
656,2021-09-10 00:00:00-04:00,146.8661346435547
657,2021-09-13 00:00:00-04:00,146.3670654296875
658,2021-09-14 00:00:00-04:00,144.27487182617188
659,2021-09-15 00:00:00-04:00,144.63958740234375
660,2021-09-16 00:00:00-04:00,143.75665283203125
661,2021-09-17 00:00:00-04:00,140.82949829101562
662,2021-09-20 00:00:00-04:00,140.4168243408203
663,2021-09-21 00:00:00-04:00,139.79298400878906
664,2021-09-22 00:00:00-04:00,139.40908813476562
665,2021-09-23 00:00:00-04:00,140.6183624267578
666,2021-09-24 00:00:00-04:00,142.59536743164062
667,2021-09-27 00:00:00-04:00,142.19229125976562
668,2021-09-28 00:00:00-04:00,140.20567321777344
669,2021-09-29 00:00:00-04:00,139.87936401367188
670,2021-09-30 00:00:00-04:00,137.2497100830078
671,2021-10-01 00:00:00-04:00,138.20947265625
672,2021-10-04 00:00:00-04:00,138.20947265625
673,2021-10-05 00:00:00-04:00,139.975341796875
674,2021-10-06 00:00:00-04:00,140.83908081054688
675,2021-10-07 00:00:00-04:00,144.41883850097656
676,2021-10-08 00:00:00-04:00,144.66839599609375
677,2021-10-11 00:00:00-04:00,145.74327087402344
678,2021-10-12 00:00:00-04:00,146.64540100097656
679,2021-10-13 00:00:00-04:00,148.4496612548828
680,2021-10-14 00:00:00-04:00,152.4805145263672
681,2021-10-15 00:00:00-04:00,153.8433380126953
682,2021-10-18 00:00:00-04:00,151.06008911132812
683,2021-10-19 00:00:00-04:00,152.5380859375
684,2021-10-20 00:00:00-04:00,153.9680633544922
685,2021-10-21 00:00:00-04:00,158.35398864746094
686,2021-10-22 00:00:00-04:00,155.2061309814453
687,2021-10-25 00:00:00-04:00,153.62258911132812
688,2021-10-26 00:00:00-04:00,155.35006713867188
689,2021-10-27 00:00:00-04:00,155.01417541503906
690,2021-10-28 00:00:00-04:00,156.41537475585938
691,2021-10-29 00:00:00-04:00,154.10243225097656
692,2021-11-01 00:00:00-04:00,152.6244354248047
693,2021-11-02 00:00:00-04:00,155.36927795410156
694,2021-11-03 00:00:00-04:00,156.25221252441406
695,2021-11-04 00:00:00-04:00,156.67446899414062
696,2021-11-05 00:00:00-04:00,156.52093505859375
697,2021-11-08 00:00:00-05:00,155.92588806152344
698,2021-11-09 00:00:00-05:00,155.51170349121094
699,2021-11-10 00:00:00-05:00,154.81820678710938
700,2021-11-11 00:00:00-05:00,153.64306640625
701,2021-11-12 00:00:00-05:00,155.69471740722656
702,2021-11-15 00:00:00-05:00,156.93727111816406
703,2021-11-16 00:00:00-05:00,158.77700805664062
704,2021-11-17 00:00:00-05:00,158.2568817138672
705,2021-11-18 00:00:00-05:00,156.37863159179688
706,2021-11-19 00:00:00-05:00,154.92417907714844
707,2021-11-22 00:00:00-05:00,155.3575897216797
708,2021-11-23 00:00:00-05:00,154.5292205810547
709,2021-11-24 00:00:00-05:00,152.92062377929688
710,2021-11-26 00:00:00-05:00,149.87689208984375
711,2021-11-29 00:00:00-05:00,151.57212829589844
712,2021-11-30 00:00:00-05:00,148.49945068359375
713,2021-12-01 00:00:00-05:00,147.83485412597656
714,2021-12-02 00:00:00-05:00,153.1807098388672
715,2021-12-03 00:00:00-05:00,154.49069213867188
716,2021-12-06 00:00:00-05:00,158.38211059570312
717,2021-12-07 00:00:00-05:00,160.16404724121094
718,2021-12-08 00:00:00-05:00,158.75775146484375
719,2021-12-09 00:00:00-05:00,158.01608276367188
720,2021-12-10 00:00:00-05:00,157.361083984375
721,2021-12-13 00:00:00-05:00,156.82168579101562
722,2021-12-14 00:00:00-05:00,156.48458862304688
723,2021-12-15 00:00:00-05:00,159.75950622558594
724,2021-12-16 00:00:00-05:00,163.0922393798828
725,2021-12-17 00:00:00-05:00,158.53622436523438
726,2021-12-20 00:00:00-05:00,154.77001953125
727,2021-12-21 00:00:00-05:00,157.90049743652344
728,2021-12-22 00:00:00-05:00,159.6439208984375
729,2021-12-23 00:00:00-05:00,160.9153594970703
730,2021-12-27 00:00:00-05:00,163.49681091308594
731,2021-12-28 00:00:00-05:00,164.89346313476562
732,2021-12-29 00:00:00-05:00,164.91273498535156
733,2021-12-30 00:00:00-05:00,164.79714965820312
734,2021-12-31 00:00:00-05:00,166.0974884033203
735,2022-01-03 00:00:00-05:00,164.32516479492188
736,2022-01-04 00:00:00-05:00,164.95126342773438
737,2022-01-05 00:00:00-05:00,166.7332000732422
738,2022-01-06 00:00:00-05:00,164.3444061279297
739,2022-01-07 00:00:00-05:00,161.54147338867188
740,2022-01-10 00:00:00-05:00,160.07737731933594
741,2022-01-11 00:00:00-05:00,162.60098266601562
742,2022-01-12 00:00:00-05:00,162.25424194335938
743,2022-01-13 00:00:00-05:00,162.61062622070312
744,2022-01-14 00:00:00-05:00,158.93113708496094
745,2022-01-18 00:00:00-05:00,157.76560974121094
746,2022-01-19 00:00:00-05:00,155.60801696777344
747,2022-01-20 00:00:00-05:00,153.82608032226562
748,2022-01-21 00:00:00-05:00,149.04855346679688
749,2022-01-24 00:00:00-05:00,149.32785034179688
750,2022-01-25 00:00:00-05:00,148.3260955810547
751,2022-01-26 00:00:00-05:00,147.84449768066406
752,2022-01-27 00:00:00-05:00,147.7481689453125
753,2022-01-28 00:00:00-05:00,149.1352081298828
754,2022-01-31 00:00:00-05:00,150.45480346679688
755,2022-02-01 00:00:00-05:00,151.56251525878906
756,2022-02-02 00:00:00-05:00,151.82257080078125
757,2022-02-03 00:00:00-05:00,150.97496032714844
758,2022-02-04 00:00:00-05:00,147.3628692626953
759,2022-02-07 00:00:00-05:00,147.20875549316406
760,2022-02-08 00:00:00-05:00,148.5765380859375
761,2022-02-09 00:00:00-05:00,151.2157745361328
762,2022-02-10 00:00:00-05:00,148.1527099609375
763,2022-02-11 00:00:00-05:00,144.38653564453125
764,2022-02-14 00:00:00-05:00,143.7797088623047
765,2022-02-15 00:00:00-05:00,146.0625457763672
766,2022-02-16 00:00:00-05:00,146.2840576171875
767,2022-02-17 00:00:00-05:00,144.12771606445312
768,2022-02-18 00:00:00-05:00,144.6982421875
769,2022-02-22 00:00:00-05:00,141.82630920410156
770,2022-02-23 00:00:00-05:00,135.9664306640625
771,2022-02-24 00:00:00-05:00,133.16221618652344
772,2022-02-25 00:00:00-05:00,136.4305877685547
773,2022-02-28 00:00:00-05:00,129.04287719726562
774,2022-03-01 00:00:00-05:00,122.32242584228516
775,2022-03-02 00:00:00-05:00,124.52711486816406
776,2022-03-03 00:00:00-05:00,123.82125091552734
777,2022-03-04 00:00:00-05:00,119.85663604736328
778,2022-03-07 00:00:00-05:00,110.71871185302734
779,2022-03-08 00:00:00-05:00,113.85171508789062
780,2022-03-09 00:00:00-05:00,118.00003051757812
781,2022-03-10 00:00:00-05:00,117.1877670288086
782,2022-03-11 00:00:00-05:00,116.25948333740234
783,2022-03-14 00:00:00-04:00,117.92267608642578
784,2022-03-15 00:00:00-04:00,119.29579162597656
785,2022-03-16 00:00:00-04:00,123.64717864990234
786,2022-03-17 00:00:00-04:00,124.43040466308594
787,2022-03-18 00:00:00-04:00,126.60612487792969
788,2022-03-21 00:00:00-04:00,124.65282440185547
789,2022-03-22 00:00:00-04:00,126.15164947509766
790,2022-03-23 00:00:00-04:00,124.48844146728516
791,2022-03-24 00:00:00-04:00,125.23301696777344
792,2022-03-25 00:00:00-04:00,125.18467712402344
793,2022-03-28 00:00:00-04:00,125.27169799804688
794,2022-03-29 00:00:00-04:00,131.40231323242188
795,2022-03-30 00:00:00-04:00,128.5497589111328
796,2022-03-31 00:00:00-04:00,126.74150085449219
797,2022-04-01 00:00:00-04:00,129.5843963623047
798,2022-04-04 00:00:00-04:00,128.96554565429688
799,2022-04-05 00:00:00-04:00,128.03724670410156
800,2022-04-06 00:00:00-04:00,129.71011352539062
801,2022-04-07 00:00:00-04:00,129.7197723388672
802,2022-04-08 00:00:00-04:00,128.15325927734375
803,2022-04-11 00:00:00-04:00,127.3990478515625
804,2022-04-12 00:00:00-04:00,124.45944213867188
805,2022-04-13 00:00:00-04:00,126.27735137939453
806,2022-04-14 00:00:00-04:00,124.03397369384766
807,2022-04-18 00:00:00-04:00,122.31275177001953
808,2022-04-19 00:00:00-04:00,125.35872650146484
809,2022-04-20 00:00:00-04:00,127.35070037841797
810,2022-04-21 00:00:00-04:00,128.7528076171875
811,2022-04-22 00:00:00-04:00,128.4627227783203
812,2022-04-25 00:00:00-04:00,125.0686264038086
813,2022-04-26 00:00:00-04:00,121.74224090576172
814,2022-04-27 00:00:00-04:00,125.32972717285156
815,2022-04-28 00:00:00-04:00,126.5287857055664
816,2022-04-29 00:00:00-04:00,123.7632064819336
817,2022-05-02 00:00:00-04:00,126.66413116455078
818,2022-05-03 00:00:00-04:00,128.8108367919922
819,2022-05-04 00:00:00-04:00,132.80442810058594
820,2022-05-05 00:00:00-04:00,127.22499084472656
821,2022-05-06 00:00:00-04:00,124.2853775024414
822,2022-05-09 00:00:00-04:00,123.50823974609375
823,2022-05-10 00:00:00-04:00,121.46822357177734
824,2022-05-11 00:00:00-04:00,120.7493667602539
825,2022-05-12 00:00:00-04:00,119.79734802246094
826,2022-05-13 00:00:00-04:00,118.8647689819336
827,2022-05-16 00:00:00-04:00,117.02876281738281
828,2022-05-17 00:00:00-04:00,120.77851104736328
829,2022-05-18 00:00:00-04:00,116.1447525024414
830,2022-05-19 00:00:00-04:00,119.16592407226562
831,2022-05-20 00:00:00-04:00,116.26133728027344
832,2022-05-23 00:00:00-04:00,119.30191040039062
833,2022-05-24 00:00:00-04:00,117.99049377441406
834,2022-05-25 00:00:00-04:00,119.88479614257812
835,2022-05-26 00:00:00-04:00,122.69223022460938
836,2022-05-27 00:00:00-04:00,126.31568145751953
837,2022-05-31 00:00:00-04:00,122.8768081665039
838,2022-06-01 00:00:00-04:00,121.78880310058594
839,2022-06-02 00:00:00-04:00,125.1111068725586
840,2022-06-03 00:00:00-04:00,121.87622833251953
841,2022-06-06 00:00:00-04:00,123.49851989746094
842,2022-06-07 00:00:00-04:00,125.10138702392578
843,2022-06-08 00:00:00-04:00,123.38194274902344
844,2022-06-09 00:00:00-04:00,120.44821166992188
845,2022-06-10 00:00:00-04:00,112.58930206298828
846,2022-06-13 00:00:00-04:00,110.0635757446289
847,2022-06-14 00:00:00-04:00,108.32470703125
848,2022-06-15 00:00:00-04:00,110.37443542480469
849,2022-06-16 00:00:00-04:00,105.40068817138672
850,2022-06-17 00:00:00-04:00,106.87725830078125
851,2022-06-21 00:00:00-04:00,107.44071197509766
852,2022-06-22 00:00:00-04:00,109.51956939697266
853,2022-06-23 00:00:00-04:00,111.09329986572266
854,2022-06-24 00:00:00-04:00,117.55333709716797
855,2022-06-27 00:00:00-04:00,117.83505249023438
856,2022-06-28 00:00:00-04:00,115.863037109375
857,2022-06-29 00:00:00-04:00,113.86188507080078
858,2022-06-30 00:00:00-04:00,111.07386016845703
859,2022-07-01 00:00:00-04:00,114.4933090209961
860,2022-07-05 00:00:00-04:00,115.36761474609375
861,2022-07-06 00:00:00-04:00,115.98933410644531
862,2022-07-07 00:00:00-04:00,115.69789123535156
863,2022-07-08 00:00:00-04:00,114.50304412841797
864,2022-07-11 00:00:00-04:00,110.9087142944336
865,2022-07-12 00:00:00-04:00,112.7155990600586
866,2022-07-13 00:00:00-04:00,112.40473175048828
867,2022-07-14 00:00:00-04:00,111.55957794189453
868,2022-07-15 00:00:00-04:00,113.4636001586914
869,2022-07-18 00:00:00-04:00,111.62757873535156
870,2022-07-19 00:00:00-04:00,116.3487548828125
871,2022-07-20 00:00:00-04:00,116.66932678222656
872,2022-07-21 00:00:00-04:00,119.43791961669922
873,2022-07-22 00:00:00-04:00,124.08139038085938
874,2022-07-25 00:00:00-04:00,123.2459487915039
875,2022-07-26 00:00:00-04:00,122.61451721191406
876,2022-07-27 00:00:00-04:00,123.30423736572266
877,2022-07-28 00:00:00-04:00,126.63624572753906
878,2022-07-29 00:00:00-04:00,125.59681701660156
879,2022-08-01 00:00:00-04:00,125.61625671386719
880,2022-08-02 00:00:00-04:00,123.0322265625
881,2022-08-03 00:00:00-04:00,124.57681274414062
882,2022-08-04 00:00:00-04:00,124.46996307373047
883,2022-08-05 00:00:00-04:00,123.7219467163086
884,2022-08-08 00:00:00-04:00,124.62538146972656
885,2022-08-09 00:00:00-04:00,124.1568374633789
886,2022-08-10 00:00:00-04:00,130.3553924560547
887,2022-08-11 00:00:00-04:00,130.16017150878906
888,2022-08-12 00:00:00-04:00,132.31747436523438
889,2022-08-15 00:00:00-04:00,133.13743591308594
890,2022-08-16 00:00:00-04:00,133.93788146972656
891,2022-08-17 00:00:00-04:00,130.98989868164062
892,2022-08-18 00:00:00-04:00,130.2968292236328
893,2022-08-19 00:00:00-04:00,128.79356384277344
894,2022-08-22 00:00:00-04:00,124.19587707519531
895,2022-08-23 00:00:00-04:00,124.60586547851562
896,2022-08-24 00:00:00-04:00,124.95726776123047
897,2022-08-25 00:00:00-04:00,129.00831604003906
898,2022-08-26 00:00:00-04:00,123.03426361083984
899,2022-08-29 00:00:00-04:00,122.9366455078125
900,2022-08-30 00:00:00-04:00,124.7327651977539
901,2022-08-31 00:00:00-04:00,123.95184326171875
902,2022-09-01 00:00:00-04:00,121.57002258300781
903,2022-09-02 00:00:00-04:00,120.80863189697266
904,2022-09-06 00:00:00-04:00,120.74029541015625
905,2022-09-07 00:00:00-04:00,124.79132843017578
906,2022-09-08 00:00:00-04:00,124.71324920654297
907,2022-09-09 00:00:00-04:00,125.05490112304688
908,2022-09-12 00:00:00-04:00,128.44212341308594
909,2022-09-13 00:00:00-04:00,121.5212173461914
910,2022-09-14 00:00:00-04:00,117.29448699951172
911,2022-09-15 00:00:00-04:00,117.56781005859375
912,2022-09-16 00:00:00-04:00,114.67838287353516
913,2022-09-19 00:00:00-04:00,116.38665771484375
914,2022-09-20 00:00:00-04:00,113.8779525756836
915,2022-09-21 00:00:00-04:00,110.59807586669922
916,2022-09-22 00:00:00-04:00,109.25098419189453
917,2022-09-23 00:00:00-04:00,109.64144897460938
918,2022-09-26 00:00:00-04:00,108.51886749267578
919,2022-09-27 00:00:00-04:00,108.41148376464844
920,2022-09-28 00:00:00-04:00,110.59807586669922
921,2022-09-29 00:00:00-04:00,108.94837951660156
922,2022-09-30 00:00:00-04:00,108.05032348632812
923,2022-10-03 00:00:00-04:00,111.46685791015625
924,2022-10-04 00:00:00-04:00,116.3085708618164
925,2022-10-05 00:00:00-04:00,117.3628158569336
926,2022-10-06 00:00:00-04:00,114.92243194580078
927,2022-10-07 00:00:00-04:00,111.6425552368164
928,2022-10-10 00:00:00-04:00,108.10888671875
929,2022-10-11 00:00:00-04:00,108.11865997314453
930,2022-10-12 00:00:00-04:00,107.07416534423828
931,2022-10-13 00:00:00-04:00,109.54383087158203
932,2022-10-14 00:00:00-04:00,107.69890594482422
933,2022-10-17 00:00:00-04:00,110.60783386230469
934,2022-10-18 00:00:00-04:00,113.95604705810547
935,2022-10-19 00:00:00-04:00,111.90611267089844
936,2022-10-20 00:00:00-04:00,105.82469177246094
937,2022-10-21 00:00:00-04:00,109.90499877929688
938,2022-10-24 00:00:00-04:00,109.28025817871094
939,2022-10-25 00:00:00-04:00,110.26618957519531
940,2022-10-26 00:00:00-04:00,110.1295166015625
941,2022-10-27 00:00:00-04:00,109.68048858642578
942,2022-10-28 00:00:00-04:00,111.43756866455078
943,2022-10-31 00:00:00-04:00,111.45709228515625
944,2022-11-01 00:00:00-04:00,111.28137969970703
945,2022-11-02 00:00:00-04:00,107.45486450195312
946,2022-11-03 00:00:00-04:00,107.09368896484375
947,2022-11-04 00:00:00-04:00,112.7065658569336
948,2022-11-07 00:00:00-05:00,113.5655746459961
949,2022-11-08 00:00:00-05:00,113.6827163696289
950,2022-11-09 00:00:00-05:00,112.05362701416016
951,2022-11-10 00:00:00-05:00,122.48567199707031
952,2022-11-11 00:00:00-05:00,127.6673355102539
953,2022-11-14 00:00:00-05:00,125.57699584960938
954,2022-11-15 00:00:00-05:00,127.08832550048828
955,2022-11-16 00:00:00-05:00,126.58782196044922
956,2022-11-17 00:00:00-05:00,124.30121612548828
957,2022-11-18 00:00:00-05:00,126.07750701904297
958,2022-11-21 00:00:00-05:00,126.6467056274414
959,2022-11-22 00:00:00-05:00,129.531982421875
960,2022-11-23 00:00:00-05:00,130.58204650878906
961,2022-11-25 00:00:00-05:00,130.87643432617188
962,2022-11-28 00:00:00-05:00,127.87342834472656
963,2022-11-29 00:00:00-05:00,129.37493896484375
964,2022-11-30 00:00:00-05:00,132.70179748535156
965,2022-12-01 00:00:00-05:00,132.4466552734375
966,2022-12-02 00:00:00-05:00,134.74307250976562
967,2022-12-05 00:00:00-05:00,132.08352661132812
968,2022-12-06 00:00:00-05:00,129.5810089111328
969,2022-12-07 00:00:00-05:00,127.02943420410156
970,2022-12-08 00:00:00-05:00,127.93230438232422
971,2022-12-09 00:00:00-05:00,127.98138427734375
972,2022-12-12 00:00:00-05:00,129.85581970214844
973,2022-12-13 00:00:00-05:00,131.57322692871094
974,2022-12-14 00:00:00-05:00,130.29742431640625
975,2022-12-15 00:00:00-05:00,126.37191772460938
976,2022-12-16 00:00:00-05:00,123.82032775878906
977,2022-12-19 00:00:00-05:00,123.29039764404297
978,2022-12-20 00:00:00-05:00,122.43659973144531
979,2022-12-21 00:00:00-05:00,124.78208923339844
980,2022-12-22 00:00:00-05:00,123.51611328125
981,2022-12-23 00:00:00-05:00,124.36009979248047
982,2022-12-27 00:00:00-05:00,124.06568145751953
983,2022-12-28 00:00:00-05:00,121.95571899414062
984,2022-12-29 00:00:00-05:00,124.04606628417969
985,2022-12-30 00:00:00-05:00,123.39834594726562
986,2023-01-03 00:00:00-05:00,124.47785949707031
987,2023-01-04 00:00:00-05:00,127.54957580566406
988,2023-01-05 00:00:00-05:00,120.81732940673828
989,2023-01-06 00:00:00-05:00,126.10694885253906
990,2023-01-09 00:00:00-05:00,126.47004699707031
991,2023-01-10 00:00:00-05:00,127.36309814453125
992,2023-01-11 00:00:00-05:00,129.63009643554688
993,2023-01-12 00:00:00-05:00,129.16885375976562
994,2023-01-13 00:00:00-05:00,129.93431091308594
995,2023-01-17 00:00:00-05:00,128.1874542236328
996,2023-01-18 00:00:00-05:00,125.40035247802734
997,2023-01-19 00:00:00-05:00,121.29820251464844
998,2023-01-20 00:00:00-05:00,128.56039428710938
999,2023-01-23 00:00:00-05:00,127.87342834472656
1000,2023-01-24 00:00:00-05:00,128.53094482421875
1001,2023-01-25 00:00:00-05:00,125.76346588134766
1002,2023-01-26 00:00:00-05:00,125.32184600830078
1003,2023-01-27 00:00:00-05:00,124.97836303710938
1004,2023-01-30 00:00:00-05:00,125.27277374267578
1005,2023-01-31 00:00:00-05:00,127.91268157958984
1006,2023-02-01 00:00:00-05:00,129.55157470703125
1007,2023-02-02 00:00:00-05:00,131.926513671875
1008,2023-02-03 00:00:00-05:00,128.29541015625
1009,2023-02-06 00:00:00-05:00,127.02943420410156
1010,2023-02-07 00:00:00-05:00,128.82537841796875
1011,2023-02-08 00:00:00-05:00,127.9519271850586
1012,2023-02-09 00:00:00-05:00,126.46025085449219
1013,2023-02-10 00:00:00-05:00,123.87922668457031
1014,2023-02-13 00:00:00-05:00,126.34248352050781
1015,2023-02-14 00:00:00-05:00,127.36309814453125
1016,2023-02-15 00:00:00-05:00,128.59963989257812
1017,2023-02-16 00:00:00-05:00,127.34735870361328
1018,2023-02-17 00:00:00-05:00,128.0967559814453
1019,2023-02-21 00:00:00-05:00,124.43853759765625
1020,2023-02-22 00:00:00-05:00,126.87406158447266
1021,2023-02-23 00:00:00-05:00,126.38104248046875
1022,2023-02-24 00:00:00-05:00,127.89955139160156
1023,2023-02-27 00:00:00-05:00,129.7730255126953
1024,2023-02-28 00:00:00-05:00,130.2167510986328
1025,2023-03-01 00:00:00-05:00,131.37042236328125
1026,2023-03-02 00:00:00-05:00,132.9579315185547
1027,2023-03-03 00:00:00-05:00,135.5413818359375
1028,2023-03-06 00:00:00-05:00,131.7747039794922
1029,2023-03-07 00:00:00-05:00,129.0828094482422
1030,2023-03-08 00:00:00-05:00,129.37863159179688
1031,2023-03-09 00:00:00-05:00,125.6218032836914
1032,2023-03-10 00:00:00-05:00,124.24134063720703
1033,2023-03-13 00:00:00-04:00,122.96934509277344
1034,2023-03-14 00:00:00-04:00,127.35723876953125
1035,2023-03-15 00:00:00-04:00,123.67929077148438
1036,2023-03-16 00:00:00-04:00,124.78366088867188
1037,2023-03-17 00:00:00-04:00,120.78032684326172
1038,2023-03-20 00:00:00-04:00,123.56096649169922
1039,2023-03-21 00:00:00-04:00,124.83296203613281
1040,2023-03-22 00:00:00-04:00,121.88469696044922
1041,2023-03-23 00:00:00-04:00,121.78609466552734
1042,2023-03-24 00:00:00-04:00,123.68916320800781
1043,2023-03-27 00:00:00-04:00,124.24134063720703
1044,2023-03-28 00:00:00-04:00,124.45826721191406
1045,2023-03-29 00:00:00-04:00,126.4500732421875
1046,2023-03-30 00:00:00-04:00,128.01788330078125
1047,2023-03-31 00:00:00-04:00,131.71554565429688
1048,2023-04-03 00:00:00-04:00,138.08535766601562
1049,2023-04-04 00:00:00-04:00,136.38938903808594
1050,2023-04-05 00:00:00-04:00,137.01058959960938
1051,2023-04-06 00:00:00-04:00,136.1428680419922
1052,2023-04-10 00:00:00-04:00,136.4091033935547
1053,2023-04-11 00:00:00-04:00,137.35569763183594
1054,2023-04-12 00:00:00-04:00,136.0836944580078
1055,2023-04-13 00:00:00-04:00,137.3458251953125
1056,2023-04-14 00:00:00-04:00,136.4879913330078
1057,2023-04-17 00:00:00-04:00,138.9629364013672
1058,2023-04-18 00:00:00-04:00,139.63345336914062
1059,2023-04-19 00:00:00-04:00,138.5882568359375
1060,2023-04-20 00:00:00-04:00,139.47569274902344
1061,2023-04-21 00:00:00-04:00,139.998291015625
1062,2023-04-24 00:00:00-04:00,140.96461486816406
1063,2023-04-25 00:00:00-04:00,138.46990966796875
1064,2023-04-26 00:00:00-04:00,135.7188720703125
1065,2023-04-27 00:00:00-04:00,136.99085998535156
1066,2023-04-28 00:00:00-04:00,138.3022918701172
1067,2023-05-01 00:00:00-04:00,137.8092803955078
1068,2023-05-02 00:00:00-04:00,137.65151977539062
1069,2023-05-03 00:00:00-04:00,136.4091033935547
1070,2023-05-04 00:00:00-04:00,133.60873413085938
1071,2023-05-05 00:00:00-04:00,136.10342407226562
1072,2023-05-08 00:00:00-04:00,136.74435424804688
1073,2023-05-09 00:00:00-04:00,135.83311462402344
1074,2023-05-10 00:00:00-04:00,135.5557861328125
1075,2023-05-11 00:00:00-04:00,135.93215942382812
1076,2023-05-12 00:00:00-04:00,136.78396606445312
1077,2023-05-15 00:00:00-04:00,139.2898712158203
1078,2023-05-16 00:00:00-04:00,138.0022430419922
1079,2023-05-17 00:00:00-04:00,141.0529022216797
1080,2023-05-18 00:00:00-04:00,141.2113800048828
1081,2023-05-19 00:00:00-04:00,141.04299926757812
1082,2023-05-22 00:00:00-04:00,139.33937072753906
1083,2023-05-23 00:00:00-04:00,135.5756072998047
1084,2023-05-24 00:00:00-04:00,132.138671875
1085,2023-05-25 00:00:00-04:00,131.7721710205078
1086,2023-05-26 00:00:00-04:00,132.45559692382812
1087,2023-05-30 00:00:00-04:00,133.06971740722656
1088,2023-05-31 00:00:00-04:00,130.0388641357422
1089,2023-06-01 00:00:00-04:00,133.69369506835938
1090,2023-06-02 00:00:00-04:00,138.2498779296875
1091,2023-06-05 00:00:00-04:00,136.60568237304688
1092,2023-06-06 00:00:00-04:00,137.89329528808594
1093,2023-06-07 00:00:00-04:00,140.49822998046875
1094,2023-06-08 00:00:00-04:00,139.82470703125
1095,2023-06-09 00:00:00-04:00,138.33900451660156
1096,2023-06-12 00:00:00-04:00,138.6559600830078
1097,2023-06-13 00:00:00-04:00,139.97329711914062
1098,2023-06-14 00:00:00-04:00,139.35919189453125
1099,2023-06-15 00:00:00-04:00,139.92376708984375
1100,2023-06-16 00:00:00-04:00,141.71652221679688
1101,2023-06-20 00:00:00-04:00,140.68641662597656
1102,2023-06-21 00:00:00-04:00,140.98355102539062
1103,2023-06-22 00:00:00-04:00,139.4285430908203
1104,2023-06-23 00:00:00-04:00,137.5664520263672
1105,2023-06-26 00:00:00-04:00,139.73558044433594
1106,2023-06-27 00:00:00-04:00,143.0536346435547
1107,2023-06-28 00:00:00-04:00,141.93441772460938
1108,2023-06-29 00:00:00-04:00,143.98468017578125
1109,2023-06-30 00:00:00-04:00,146.88677978515625
1110,2023-07-03 00:00:00-04:00,147.64942932128906
1111,2023-07-05 00:00:00-04:00,144.78697204589844
1112,2023-07-06 00:00:00-04:00,143.8460235595703
1113,2023-07-07 00:00:00-04:00,145.37135314941406
1114,2023-07-10 00:00:00-04:00,146.49057006835938
1115,2023-07-11 00:00:00-04:00,149.1549530029297
1116,2023-07-12 00:00:00-04:00,150.22463989257812
1117,2023-07-13 00:00:00-04:00,150.06617736816406
1118,2023-07-14 00:00:00-04:00,148.31304931640625
1119,2023-07-17 00:00:00-04:00,149.75912475585938
1120,2023-07-18 00:00:00-04:00,149.92750549316406
1121,2023-07-19 00:00:00-04:00,148.8280792236328
1122,2023-07-20 00:00:00-04:00,148.29324340820312
1123,2023-07-21 00:00:00-04:00,147.9267578125
1124,2023-07-24 00:00:00-04:00,144.47991943359375
1125,2023-07-25 00:00:00-04:00,145.6090545654297
1126,2023-07-26 00:00:00-04:00,144.78697204589844
1127,2023-07-27 00:00:00-04:00,143.4201202392578
1128,2023-07-28 00:00:00-04:00,144.02432250976562
1129,2023-07-31 00:00:00-04:00,142.5286865234375
1130,2023-08-01 00:00:00-04:00,144.16297912597656
1131,2023-08-02 00:00:00-04:00,140.41900634765625
1132,2023-08-03 00:00:00-04:00,138.94320678710938
1133,2023-08-04 00:00:00-04:00,139.23043823242188
1134,2023-08-07 00:00:00-04:00,141.89479064941406
1135,2023-08-08 00:00:00-04:00,141.96414184570312
1136,2023-08-09 00:00:00-04:00,138.74038696289062
1137,2023-08-10 00:00:00-04:00,138.75033569335938
1138,2023-08-11 00:00:00-04:00,135.95443725585938
1139,2023-08-14 00:00:00-04:00,138.92942810058594
1140,2023-08-15 00:00:00-04:00,138.17323303222656
1141,2023-08-16 00:00:00-04:00,136.9494171142578
1142,2023-08-17 00:00:00-04:00,137.37725830078125
1143,2023-08-18 00:00:00-04:00,138.82992553710938
1144,2023-08-21 00:00:00-04:00,137.90460205078125
1145,2023-08-22 00:00:00-04:00,137.66580200195312
1146,2023-08-23 00:00:00-04:00,137.1583709716797
1147,2023-08-24 00:00:00-04:00,136.56137084960938
1148,2023-08-25 00:00:00-04:00,137.67575073242188
1149,2023-08-28 00:00:00-04:00,138.13343811035156
1150,2023-08-29 00:00:00-04:00,140.2527618408203
1151,2023-08-30 00:00:00-04:00,141.32733154296875
1152,2023-08-31 00:00:00-04:00,141.04873657226562
1153,2023-09-01 00:00:00-04:00,141.2974853515625
1154,2023-09-05 00:00:00-04:00,135.7852783203125
1155,2023-09-06 00:00:00-04:00,136.3623809814453
1156,2023-09-07 00:00:00-04:00,135.49673461914062
1157,2023-09-08 00:00:00-04:00,135.01914978027344
1158,2023-09-11 00:00:00-04:00,135.6658935546875
1159,2023-09-12 00:00:00-04:00,133.16847229003906
1160,2023-09-13 00:00:00-04:00,132.3326873779297
1161,2023-09-14 00:00:00-04:00,133.71571350097656
1162,2023-09-15 00:00:00-04:00,133.12867736816406
1163,2023-09-18 00:00:00-04:00,131.82525634765625
1164,2023-09-19 00:00:00-04:00,131.54666137695312
1165,2023-09-20 00:00:00-04:00,130.14373779296875
1166,2023-09-21 00:00:00-04:00,127.64631652832031
1167,2023-09-22 00:00:00-04:00,129.4770965576172
1168,2023-09-25 00:00:00-04:00,131.38746643066406
1169,2023-09-26 00:00:00-04:00,127.9647216796875
1170,2023-09-27 00:00:00-04:00,127.38762664794922
1171,2023-09-28 00:00:00-04:00,129.90493774414062
1172,2023-09-29 00:00:00-04:00,129.1487579345703
1173,2023-10-02 00:00:00-04:00,128.7209014892578
1174,2023-10-03 00:00:00-04:00,128.0045166015625
1175,2023-10-04 00:00:00-04:00,132.5515899658203
1176,2023-10-05 00:00:00-04:00,130.67108154296875
1177,2023-10-06 00:00:00-04:00,132.46205139160156
1178,2023-10-09 00:00:00-04:00,128.1139678955078
1179,2023-10-10 00:00:00-04:00,129.6263427734375
1180,2023-10-11 00:00:00-04:00,131.8551025390625
1181,2023-10-12 00:00:00-04:00,129.40744018554688
1182,2023-10-13 00:00:00-04:00,127.81547546386719
1183,2023-10-16 00:00:00-04:00,129.6959991455078
1184,2023-10-17 00:00:00-04:00,130.79046630859375
1185,2023-10-18 00:00:00-04:00,127.13888549804688
1186,2023-10-19 00:00:00-04:00,123.71614074707031
1187,2023-10-20 00:00:00-04:00,124.09423828125
1188,2023-10-23 00:00:00-04:00,123.06940460205078
1189,2023-10-24 00:00:00-04:00,122.2336196899414
1190,2023-10-25 00:00:00-04:00,120.87049865722656
1191,2023-10-26 00:00:00-04:00,121.39783477783203
1192,2023-10-27 00:00:00-04:00,120.11431121826172
1193,2023-10-30 00:00:00-04:00,121.20878601074219
1194,2023-10-31 00:00:00-04:00,122.15401458740234
1195,2023-11-01 00:00:00-04:00,122.35301971435547
1196,2023-11-02 00:00:00-04:00,124.2932357788086
1197,2023-11-03 00:00:00-04:00,127.66622161865234
1198,2023-11-06 00:00:00-05:00,127.1090316772461
1199,2023-11-07 00:00:00-05:00,127.16873168945312
1200,2023-11-08 00:00:00-05:00,128.90000915527344
1201,2023-11-09 00:00:00-05:00,127.37000274658203
1202,2023-11-10 00:00:00-05:00,128.80999755859375
1203,2023-11-13 00:00:00-05:00,129.27999877929688
1204,2023-11-14 00:00:00-05:00,133.50999450683594
1205,2023-11-15 00:00:00-05:00,133.6199951171875
1206,2023-11-16 00:00:00-05:00,135.16000366210938
1207,2023-11-17 00:00:00-05:00,135.8699951171875
1208,2023-11-20 00:00:00-05:00,135.55999755859375
1209,2023-11-21 00:00:00-05:00,136.5800018310547
1210,2023-11-22 00:00:00-05:00,136.63999938964844
1211,2023-11-24 00:00:00-05:00,136.4499969482422
1212,2023-11-27 00:00:00-05:00,137.2899932861328
1213,2023-11-28 00:00:00-05:00,138.0800018310547
1214,2023-11-29 00:00:00-05:00,139.5500030517578
1215,2023-11-30 00:00:00-05:00,141.99000549316406
1216,2023-12-01 00:00:00-05:00,143.6300048828125
1217,2023-12-04 00:00:00-05:00,143.14999389648438
1218,2023-12-05 00:00:00-05:00,142.64999389648438
1219,2023-12-06 00:00:00-05:00,142.6999969482422
1220,2023-12-07 00:00:00-05:00,144.97999572753906
1221,2023-12-08 00:00:00-05:00,143.97999572753906
1222,2023-12-11 00:00:00-05:00,145.83999633789062
1223,2023-12-12 00:00:00-05:00,145.3699951171875
1224,2023-12-13 00:00:00-05:00,147.47000122070312
1225,2023-12-14 00:00:00-05:00,149.14999389648438
1226,2023-12-15 00:00:00-05:00,148.67999267578125
1227,2023-12-18 00:00:00-05:00,148.75
1228,2023-12-19 00:00:00-05:00,149.50999450683594
1229,2023-12-20 00:00:00-05:00,146.32000732421875
1230,2023-12-21 00:00:00-05:00,147.75
1231,2023-12-22 00:00:00-05:00,148.75
1232,2023-12-26 00:00:00-05:00,149.69000244140625
1233,2023-12-27 00:00:00-05:00,150.16000366210938
1234,2023-12-28 00:00:00-05:00,150.3800048828125
1235,2023-12-29 00:00:00-05:00,149.5500030517578
1236,2024-01-02 00:00:00-05:00,147.27999877929688
1237,2024-01-03 00:00:00-05:00,145.6199951171875
1238,2024-01-04 00:00:00-05:00,144.91000366210938
1239,2024-01-05 00:00:00-05:00,145.94000244140625
1240,2024-01-08 00:00:00-05:00,147.38999938964844
1241,2024-01-09 00:00:00-05:00,146.22999572753906
1242,2024-01-10 00:00:00-05:00,147.2899932861328
1243,2024-01-11 00:00:00-05:00,146.38999938964844
1244,2024-01-12 00:00:00-05:00,145.5500030517578
1245,2024-01-16 00:00:00-05:00,143.75999450683594
1246,2024-01-17 00:00:00-05:00,143.0800018310547
1247,2024-01-18 00:00:00-05:00,144.9499969482422
1248,2024-01-19 00:00:00-05:00,141.38999938964844
1249,2024-01-22 00:00:00-05:00,142.13999938964844
1250,2024-01-23 00:00:00-05:00,142.44000244140625
1251,2024-01-24 00:00:00-05:00,141.02999877929688
1252,2024-01-25 00:00:00-05:00,142.7899932861328
1253,2024-01-26 00:00:00-05:00,143.0399932861328
1254,2024-01-29 00:00:00-05:00,142.86000061035156
1255,2024-01-30 00:00:00-05:00,143.07000732421875
1256,2024-01-31 00:00:00-05:00,141.0399932861328
1257,2024-02-01 00:00:00-05:00,141.5
1258,2024-02-02 00:00:00-05:00,140.08999633789062
